"sample_id","device_timestamp_ns","voltage_uV"
"804","599616093722211968","-149"
"805","599616093729904256","-137"
"806","599616093737596544","-53"
"807","599616093745288832","26"
"808","599616093752981248","67"
"809","599616093760673536","91"
"810","599616093768365824","57"
"811","599616093776058112","-16"
"812","599616093783750400","-33"
"813","599616093791442688","-4"
"814","599616093799135104","-33"
"815","599616093806827392","-84"
"816","599616093814519680","-67"
"817","599616093822211968","-72"
"818","599616093829904256","-142"
"819","599616093837596544","-178"
"820","599616093845288832","-180"
"821","599616093852981248","-176"
"822","599616093860673536","-180"
"823","599616093868365824","-214"
"824","599616093876058112","-231"
"825","599616093883750400","-226"
"826","599616093891442688","-287"
"827","599616093899135104","-371"
"828","599616093906827392","-304"
"829","599616093914519680","-50"
"830","599616093922211968","265"
"831","599616093929904256","398"
"832","599616093937596544","74"
"833","599616093945288832","-383"
"834","599616093952981248","-477"
"835","599616093960673536","-402"
"836","599616093968365824","-388"
"837","599616093976058112","-354"
"838","599616093983750400","-316"
"839","599616093991442688","-306"
"840","599616093999135104","-301"
"841","599616094006827392","-296"
"842","599616094014519680","-277"
"843","599616094022211968","-253"
"844","599616094029904256","-246"
"845","599616094037596544","-219"
"846","599616094045288832","-188"
"847","599616094052981248","-221"
"848","599616094060673536","-258"
"849","599616094068365824","-234"
"850","599616094076058112","-212"
"851","599616094083750400","-171"
"852","599616094091442688","-82"
"853","599616094099135104","-79"
"854","599616094106827392","-147"
"855","599616094114519680","-96"
"856","599616094122211968","0"
"857","599616094129904256","16"
"858","599616094137596544","28"
"859","599616094145288832","69"
"860","599616094152981248","94"
"861","599616094160673536","144"
"862","599616094168365824","221"
"863","599616094176058112","212"
"864","599616094183750400","132"
"865","599616094191442688","72"
"866","599616094199135104","28"
"867","599616094206827392","-21"
"868","599616094214519680","-82"
"869","599616094222211968","-135"
"870","599616094229904256","-164"
"871","599616094237596544","-173"
"872","599616094245288832","-180"
"873","599616094252981248","-193"
"874","599616094260673536","-197"
"875","599616094268365824","-188"
"876","599616094276058096","-202"
"877","599616094283751680","-217"
"878","599616094291445248","-212"
"879","599616094299138688","-226"
"880","599616094306832256","-250"
"881","599616094314525824","-270"
"882","599616094322219392","-284"
"883","599616094329912832","-267"
"884","599616094337606400","-246"
"885","599616094345299968","-250"
"886","599616094352993408","-250"
"887","599616094360686976","-250"
"888","599616094368380544","-275"
"889","599616094376074112","-304"
"890","599616094383767552","-318"
"891","599616094391461120","-304"
"892","599616094399154688","-267"
"893","599616094406848256","-255"
"894","599616094414541696","-260"
"895","599616094422235264","-263"
"896","599616094429928832","-299"
"897","599616094437622272","-342"
"898","599616094445315840","-255"
"899","599616094453009408","-9"
"900","599616094460702976","284"
"901","599616094468396416","419"
"902","599616094476089984","168"
"903","599616094483783552","-224"
"904","599616094491476992","-330"
"905","599616094499170560","-267"
"906","599616094506864128","-255"
"907","599616094514557696","-246"
"908","599616094522251136","-238"
"909","599616094529944704","-236"
"910","599616094537638272","-209"
"911","599616094545331712","-159"
"912","599616094553025280","-118"
"913","599616094560718848","-106"
"914","599616094568412416","-82"
"915","599616094576105856","-14"
"916","599616094583799424","89"
"917","599616094591492992","197"
"918","599616094599186432","236"
"919","599616094606880000","258"
"920","599616094614573568","299"
"921","599616094622267136","248"
"922","599616094629960576","161"
"923","599616094637654144","168"
"924","599616094645347712","176"
"925","599616094653041280","132"
"926","599616094660734720","110"
"927","599616094668428288","84"
"928","599616094676121856","67"
"929","599616094683815296","91"
"930","599616094691508864","72"
"931","599616094699202432","33"
"932","599616094706896000","24"
"933","599616094714589440","-12"
"934","599616094722283008","-62"
"935","599616094729976576","-101"
"936","599616094737670016","-159"
"937","599616094745363584","-190"
"938","599616094753057152","-166"
"939","599616094760750720","-166"
"940","599616094768444160","-183"
"941","599616094776137728","-171"
"942","599616094783831296","-185"
"943","599616094791524736","-217"
"944","599616094799218304","-207"
"945","599616094806911872","-185"
"946","599616094814605440","-200"
"947","599616094822298880","-212"
"948","599616094829992448","-197"
"949","599616094837685936","-183"
"950","599616094845379456","-180"
"951","599616094853073024","-200"
"952","599616094860766464","-209"
"953","599616094868460032","-161"
"954","599616094876153600","-110"
"955","599616094883847168","-144"
"956","599616094891540608","-212"
"957","599616094899234176","-202"
"958","599616094906927744","-156"
"959","599616094914621184","-171"
"960","599616094922314752","-207"
"961","599616094930008320","-200"
"962","599616094937701888","-214"
"963","599616094945395328","-219"
"964","599616094953088896","-193"
"965","599616094960782464","-229"
"966","599616094968476032","-260"
"967","599616094976169472","-253"
"968","599616094983863040","-234"
"969","599616094991556608","50"
"970","599616094999250048","620"
"971","599616095006943616","866"
"972","599616095014637184","528"
"973","599616095022330752","154"
"974","599616095030024192","12"
"975","599616095037717760","-77"
"976","599616095045411328","-137"
"977","599616095053104768","-173"
"978","599616095060798336","-209"
"979","599616095068491904","-197"
"980","599616095076185472","-180"
"981","599616095083878912","-180"
"982","599616095091572480","-166"
"983","599616095099266048","-176"
"984","599616095106959488","-195"
"985","599616095114653056","-166"
"986","599616095122346624","-149"
"987","599616095130040192","-171"
"988","599616095137733632","-154"
"989","599616095145427200","-123"
"990","599616095153120768","-115"
"991","599616095160814208","-103"
"992","599616095168507776","-79"
"993","599616095176201344","-57"
"994","599616095183894912","-53"
"995","599616095191588352","-48"
"996","599616095199281920","-36"
"997","599616095206975488","-28"
"998","599616095214669056","-31"
"999","599616095222362496","-36"
"1000","599616095230056064","-26"
"1001","599616095237749632","-21"
"1002","599616095245443072","-62"
"1003","599616095253136640","-103"
"1004","599616095260830208","-132"
"1005","599616095268523776","-190"
"1006","599616095276217216","-217"
"1007","599616095283910784","-219"
"1008","599616095291604352","-277"
"1009","599616095299297792","-279"
"1010","599616095306991360","-219"
"1011","599616095314684928","-246"
"1012","599616095322378496","-284"
"1013","599616095330071936","-246"
"1014","599616095337765504","-246"
"1015","599616095345459072","-272"
"1016","599616095353152512","-219"
"1017","599616095360846080","-154"
"1018","599616095368539648","-185"
"1019","599616095376233216","-214"
"1020","599616095383926656","-135"
"1021","599616095391620224","-60"
"1022","599616095399313776","-67"
"1023","599616095407007488","-65"
"1024","599616095414701184","9"
"1025","599616095422394880","123"
"1026","599616095430088448","154"
"1027","599616095437782144","74"
"1028","599616095445475840","4"
"1029","599616095453169536","-33"
"1030","599616095460863232","-89"
"1031","599616095468556800","-113"
"1032","599616095476250496","-113"
"1033","599616095483944192","-137"
"1034","599616095491637888","-154"
"1035","599616095499331584","-173"
"1036","599616095507025280","-226"
"1037","599616095514718848","-234"
"1038","599616095522412544","-115"
"1039","599616095530106240","142"
"1040","599616095537799936","427"
"1041","599616095545493632","419"
"1042","599616095553187200","36"
"1043","599616095560880896","-263"
"1044","599616095568574592","-277"
"1045","599616095576268288","-287"
"1046","599616095583961984","-323"
"1047","599616095591655552","-291"
"1048","599616095599349248","-272"
"1049","599616095607042944","-287"
"1050","599616095614736640","-284"
"1051","599616095622430336","-277"
"1052","599616095630123904","-279"
"1053","599616095637817600","-270"
"1054","599616095645511296","-258"
"1055","599616095653204992","-243"
"1056","599616095660898688","-217"
"1057","599616095668592256","-185"
"1058","599616095676285952","-161"
"1059","599616095683979648","-152"
"1060","599616095691673344","-142"
"1061","599616095699367040","-149"
"1062","599616095707060736","-142"
"1063","599616095714754304","-69"
"1064","599616095722448000","-45"
"1065","599616095730141696","-123"
"1066","599616095737835392","-135"
"1067","599616095745529088","-43"
"1068","599616095753222656","-9"
"1069","599616095760916352","-62"
"1070","599616095768610048","-60"
"1071","599616095776303744","-12"
"1072","599616095783997440","-43"
"1073","599616095791691008","-86"
"1074","599616095799384704","-96"
"1075","599616095807078400","-106"
"1076","599616095814772096","-98"
"1077","599616095822465792","-98"
"1078","599616095830159360","-98"
"1079","599616095837853056","-19"
"1080","599616095845546752","132"
"1081","599616095853240448","250"
"1082","599616095860934144","246"
"1083","599616095868627712","152"
"1084","599616095876321408","57"
"1085","599616095884015104","21"
"1086","599616095891708800","-7"
"1087","599616095899402496","-74"
"1088","599616095907096192","-108"
"1089","599616095914789760","-84"
"1090","599616095922483456","-79"
"1091","599616095930177152","-110"
"1092","599616095937870848","-113"
"1093","599616095945564544","-86"
"1094","599616095953258112","-86"
"1095","599616095960951790","-110"
"1096","599616095968645248","-120"
"1097","599616095976338688","-103"
"1098","599616095984032128","-110"
"1099","599616095991725696","-144"
"1100","599616095999419136","-149"
"1101","599616096007112576","-135"
"1102","599616096014806016","-139"
"1103","599616096022499456","-156"
"1104","599616096030192896","-188"
"1105","599616096037886464","-238"
"1106","599616096045579904","-287"
"1107","599616096053273344","-231"
"1108","599616096060966784","7"
"1109","599616096068660224","369"
"1110","599616096076353664","567"
"1111","599616096084047232","296"
"1112","599616096091740672","-159"
"1113","599616096099434112","-308"
"1114","599616096107127552","-250"
"1115","599616096114820992","-238"
"1116","599616096122514432","-236"
"1117","599616096130208000","-231"
"1118","599616096137901440","-238"
"1119","599616096145594880","-205"
"1120","599616096153288320","-176"
"1121","599616096160981760","-207"
"1122","599616096168675328","-224"
"1123","599616096176368768","-178"
"1124","599616096184062208","-147"
"1125","599616096191755648","-154"
"1126","599616096199449088","-149"
"1127","599616096207142528","-127"
"1128","599616096214836096","-106"
"1129","599616096222529536","-62"
"1130","599616096230222976","-33"
"1131","599616096237916416","-28"
"1132","599616096245609856","-4"
"1133","599616096253303296","36"
"1134","599616096260996864","50"
"1135","599616096268690304","96"
"1136","599616096276383744","209"
"1137","599616096284077184","260"
"1138","599616096291770624","202"
"1139","599616096299464192","135"
"1140","599616096307157632","91"
"1141","599616096314851072","33"
"1142","599616096322544512","-38"
"1143","599616096330237952","-113"
"1144","599616096337931392","-149"
"1145","599616096345624960","-152"
"1146","599616096353318400","-193"
"1147","599616096361011840","-234"
"1148","599616096368705280","-219"
"1149","599616096376398720","-209"
"1150","599616096384092160","-226"
"1151","599616096391785728","-229"
"1152","599616096399479168","-229"
"1153","599616096407172608","-241"
"1154","599616096414866048","-243"
"1155","599616096422559488","-238"
"1156","599616096430252928","-219"
"1157","599616096437946496","-212"
"1158","599616096445639936","-231"
"1159","599616096453333376","-246"
"1160","599616096461026816","-238"
"1161","599616096468720256","-226"
"1162","599616096476413824","-183"
"1163","599616096484107264","-142"
"1164","599616096491800704","-154"
"1165","599616096499494144","-173"
"1166","599616096507187584","-171"
"1167","599616096514881024","-178"
"1168","599616096522574544","-200"
"1169","599616096530268032","-205"
"1170","599616096537961472","-180"
"1171","599616096545654912","-166"
"1172","599616096553348480","-180"
"1173","599616096561041920","-183"
"1174","599616096568735360","-209"
"1175","599616096576428800","-275"
"1176","599616096584122240","-284"
"1177","599616096591815680","-96"
"1178","599616096599509248","294"
"1179","599616096607202688","562"
"1180","599616096614896128","383"
"1181","599616096622589568","-9"
"1182","599616096630283008","-202"
"1183","599616096637976448","-263"
"1184","599616096645670016","-255"
"1185","599616096653363456","-139"
"1186","599616096661056896","-115"
"1187","599616096668750336","-154"
"1188","599616096676443776","-57"
"1189","599616096684137216","94"
"1190","599616096691830784","166"
"1191","599616096699524224","139"
"1192","599616096707217664","110"
"1193","599616096714911104","154"
"1194","599616096722604544","159"
"1195","599616096730298112","67"
"1196","599616096737991552","0"
"1197","599616096745684992","-12"
"1198","599616096753378432","-4"
"1199","599616096761071872","4"
"1200","599616096768765312","16"
"1201","599616096776458880","43"
"1202","599616096784152320","41"
"1203","599616096791845760","24"
"1204","599616096799539200","21"
"1205","599616096807232640","24"
"1206","599616096814926080","24"
"1207","599616096822619648","21"
"1208","599616096830313088","19"
"1209","599616096838006528","24"
"1210","599616096845699968","-7"
"1211","599616096853393408","-53"
"1212","599616096861086976","-67"
"1213","599616096868780416","-89"
"1214","599616096876473856","-130"
"1215","599616096884167296","-166"
"1216","599616096891860736","-202"
"1217","599616096899554176","-221"
"1218","599616096907247744","-214"
"1219","599616096914941184","-224"
"1220","599616096922634624","-226"
"1221","599616096930328064","-212"
"1222","599616096938021504","-229"
"1223","599616096945714944","-255"
"1224","599616096953408512","-250"
"1225","599616096961101952","-214"
"1226","599616096968795392","-193"
"1227","599616096976488832","-207"
"1228","599616096984182272","-236"
"1229","599616096991875712","-231"
"1230","599616096999569280","-178"
"1231","599616097007262720","-156"
"1232","599616097014956160","-178"
"1233","599616097022649600","-147"
"1234","599616097030343040","-118"
"1235","599616097038036608","-137"
"1236","599616097045730048","-115"
"1237","599616097053423488","-84"
"1238","599616097061116928","-118"
"1239","599616097068810368","-130"
"1240","599616097076503808","-89"
"1241","599616097084197298","-55"
"1242","599616097091890816","9"
"1243","599616097099584384","67"
"1244","599616097107277824","-2"
"1245","599616097114971392","-4"
"1246","599616097122664960","275"
"1247","599616097130358528","608"
"1248","599616097138051968","649"
"1249","599616097145745536","291"
"1250","599616097153439104","-67"
"1251","599616097161132544","-127"
"1252","599616097168826112","-152"
"1253","599616097176519680","-221"
"1254","599616097184213248","-207"
"1255","599616097191906688","-173"
"1256","599616097199600256","-166"
"1257","599616097207293824","-176"
"1258","599616097214987392","-190"
"1259","599616097222680832","-185"
"1260","599616097230374400","-176"
"1261","599616097238067968","-185"
"1262","599616097245761408","-200"
"1263","599616097253454976","-197"
"1264","599616097261148544","-205"
"1265","599616097268842112","-207"
"1266","599616097276535552","-188"
"1267","599616097284229120","-168"
"1268","599616097291922688","-166"
"1269","599616097299616128","-156"
"1270","599616097307309696","-144"
"1271","599616097315003264","-127"
"1272","599616097322696832","-115"
"1273","599616097330390272","-91"
"1274","599616097338083840","-72"
"1275","599616097345777408","-91"
"1276","599616097353470848","-113"
"1277","599616097361164416","-113"
"1278","599616097368857984","-108"
"1279","599616097376551552","-120"
"1280","599616097384244992","-164"
"1281","599616097391938560","-219"
"1282","599616097399632128","-250"
"1283","599616097407325568","-296"
"1284","599616097415019136","-354"
"1285","599616097422712704","-332"
"1286","599616097430406272","-277"
"1287","599616097438099712","-282"
"1288","599616097445793280","-301"
"1289","599616097453486848","-267"
"1290","599616097461180416","-205"
"1291","599616097468873856","-161"
"1292","599616097476567424","-149"
"1293","599616097484260992","-152"
"1294","599616097491954432","-144"
"1295","599616097499648000","-103"
"1296","599616097507341568","-41"
"1297","599616097515035136","-4"
"1298","599616097522728576","-9"
"1299","599616097530422144","-7"
"1300","599616097538115712","21"
"1301","599616097545809152","21"
"1302","599616097553502720","-12"
"1303","599616097561196288","-55"
"1304","599616097568889856","-69"
"1305","599616097576583296","-69"
"1306","599616097584276864","-98"
"1307","599616097591970432","-103"
"1308","599616097599663872","-101"
"1309","599616097607357440","-135"
"1310","599616097615051008","-152"
"1311","599616097622744576","-164"
"1312","599616097630438016","-241"
"1313","599616097638131584","-304"
"1314","599616097645825138","-197"
"1315","599616097653518720","77"
"1316","599616097661212288","398"
"1317","599616097668905728","492"
"1318","599616097676599296","130"
"1319","599616097684292864","-299"
"1320","599616097691986432","-374"
"1321","599616097699679872","-332"
"1322","599616097707373440","-352"
"1323","599616097715067008","-323"
"1324","599616097722760448","-277"
"1325","599616097730454016","-284"
"1326","599616097738147584","-277"
"1327","599616097745841152","-221"
"1328","599616097753534592","-207"
"1329","599616097761228160","-221"
"1330","599616097768921728","-221"
"1331","599616097776615296","-207"
"1332","599616097784308736","-173"
"1333","599616097792002304","-154"
"1334","599616097799695872","-154"
"1335","599616097807389312","-118"
"1336","599616097815082880","-98"
"1337","599616097822776448","-130"
"1338","599616097830470016","-115"
"1339","599616097838163456","-43"
"1340","599616097845857024","-9"
"1341","599616097853550592","-45"
"1342","599616097861244032","-79"
"1343","599616097868937600","-33"
"1344","599616097876631168","53"
"1345","599616097884324736","65"
"1346","599616097892018176","31"
"1347","599616097899711744","38"
"1348","599616097907405312","84"
"1349","599616097915098752","159"
"1350","599616097922792320","234"
"1351","599616097930485888","243"
"1352","599616097938179456","149"
"1353","599616097945872896","28"
"1354","599616097953566464","-38"
"1355","599616097961260032","-94"
"1356","599616097968953472","-120"
"1357","599616097976647040","-91"
"1358","599616097984340608","-103"
"1359","599616097992034176","-152"
"1360","599616097999727616","-142"
"1361","599616098007421184","-130"
"1362","599616098015114752","-164"
"1363","599616098022808320","-185"
"1364","599616098030501760","-185"
"1365","599616098038195328","-195"
"1366","599616098045888896","-207"
"1367","599616098053582336","-202"
"1368","599616098061275904","-164"
"1369","599616098068969472","-144"
"1370","599616098076663040","-173"
"1371","599616098084356480","-178"
"1372","599616098092050048","-156"
"1373","599616098099743616","-171"
"1374","599616098107437056","-193"
"1375","599616098115130624","-190"
"1376","599616098122824192","-190"
"1377","599616098130517760","-195"
"1378","599616098138211200","-193"
"1379","599616098145904768","-200"
"1380","599616098153598336","-258"
"1381","599616098161291776","-304"
"1382","599616098168985344","-221"
"1383","599616098176678912","0"
"1384","599616098184372480","282"
"1385","599616098192065920","443"
"1386","599616098199759488","236"
"1387","599616098207452978","-171"
"1388","599616098215146496","-313"
"1389","599616098222840064","-200"
"1390","599616098230533504","-156"
"1391","599616098238227072","-224"
"1392","599616098245920640","-238"
"1393","599616098253614208","-219"
"1394","599616098261307648","-209"
"1395","599616098269001216","-118"
"1396","599616098276694784","-24"
"1397","599616098284388224","-33"
"1398","599616098292081792","-21"
"1399","599616098299775360","38"
"1400","599616098307468928","65"
"1401","599616098315162368","84"
"1402","599616098322855936","72"
"1403","599616098330549504","24"
"1404","599616098338243072","26"
"1405","599616098345936512","19"
"1406","599616098353630080","-31"
"1407","599616098361323648","-9"
"1408","599616098369017088","36"
"1409","599616098376710656","7"
"1410","599616098384404224","-43"
"1411","599616098392097792","-36"
"1412","599616098399791232","7"
"1413","599616098407484800","7"
"1414","599616098415178368","-28"
"1415","599616098422871808","-45"
"1416","599616098430565376","-48"
"1417","599616098438258944","-82"
"1418","599616098445952512","-154"
"1419","599616098453645952","-217"
"1420","599616098461339520","-243"
"1421","599616098469033088","-265"
"1422","599616098476726528","-294"
"1423","599616098484420096","-304"
"1424","599616098492113664","-284"
"1425","599616098499807232","-265"
"1426","599616098507500672","-279"
"1427","599616098515194240","-313"
"1428","599616098522887808","-313"
"1429","599616098530581248","-265"
"1430","599616098538274816","-246"
"1431","599616098545968384","-284"
"1432","599616098553661952","-294"
"1433","599616098561355392","-258"
"1434","599616098569048960","-231"
"1435","599616098576742528","-219"
"1436","599616098584436096","-219"
"1437","599616098592129536","-180"
"1438","599616098599823104","-108"
"1439","599616098607516672","-159"
"1440","599616098615210112","-238"
"1441","599616098622903680","-200"
"1442","599616098630597248","-176"
"1443","599616098638290816","-195"
"1444","599616098645984256","-183"
"1445","599616098653677824","-147"
"1446","599616098661371392","-106"
"1447","599616098669064832","-106"
"1448","599616098676758400","-166"
"1449","599616098684451968","-195"
"1450","599616098692145536","-125"
"1451","599616098699838976","96"
"1452","599616098707532544","516"
"1453","599616098715226112","786"
"1454","599616098722919552","516"
"1455","599616098730613120","84"
"1456","599616098738306688","-33"
"1457","599616098746000256","-62"
"1458","599616098753693696","-115"
"1459","599616098761387264","-89"
"1460","599616098769080818","-101"
"1461","599616098776774528","-168"
"1462","599616098784468224","-154"
"1463","599616098792161920","-115"
"1464","599616098799855488","-161"
"1465","599616098807549184","-205"
"1466","599616098815242880","-178"
"1467","599616098822936576","-130"
"1468","599616098830630272","-120"
"1469","599616098838323840","-139"
"1470","599616098846017536","-137"
"1471","599616098853711232","-130"
"1472","599616098861404928","-139"
"1473","599616098869098624","-127"
"1474","599616098876792320","-110"
"1475","599616098884485888","-115"
"1476","599616098892179584","-103"
"1477","599616098899873280","-82"
"1478","599616098907566976","-82"
"1479","599616098915260672","-74"
"1480","599616098922954240","-67"
"1481","599616098930647936","-86"
"1482","599616098938341632","-86"
"1483","599616098946035328","-67"
"1484","599616098953729024","-84"
"1485","599616098961422592","-120"
"1486","599616098969116288","-149"
"1487","599616098976809984","-183"
"1488","599616098984503680","-231"
"1489","599616098992197376","-253"
"1490","599616098999890944","-250"
"1491","599616099007584640","-265"
"1492","599616099015278336","-279"
"1493","599616099022972032","-250"
"1494","599616099030665728","-219"
"1495","599616099038359296","-214"
"1496","599616099046052992","-221"
"1497","599616099053746688","-231"
"1498","599616099061440384","-226"
"1499","599616099069134080","-173"
"1500","599616099076827776","-113"
"1501","599616099084521344","-106"
"1502","599616099092215040","-96"
"1503","599616099099908736","-41"
"1504","599616099107602432","-19"
"1505","599616099115296128","-9"
"1506","599616099122989696","130"
"1507","599616099130683392","282"
"1508","599616099138377088","284"
"1509","599616099146070784","234"
"1510","599616099153764480","193"
"1511","599616099161458048","101"
"1512","599616099169151744","-14"
"1513","599616099176845440","-55"
"1514","599616099184539136","-48"
"1515","599616099192232832","-101"
"1516","599616099199926400","-195"
"1517","599616099207620096","-193"
"1518","599616099215313792","-60"
"1519","599616099223007488","178"
"1520","599616099230701184","417"
"1521","599616099238394752","390"
"1522","599616099246088448","33"
"1523","599616099253782144","-270"
"1524","599616099261475840","-316"
"1525","599616099269169536","-275"
"1526","599616099276863232","-258"
"1527","599616099284556800","-255"
"1528","599616099292250496","-248"
"1529","599616099299944192","-243"
"1530","599616099307637888","-250"
"1531","599616099315331584","-255"
"1532","599616099323025152","-224"
"1533","599616099330718832","-200"
"1534","599616099338412288","-207"
"1535","599616099346105728","-200"
"1536","599616099353799168","-183"
"1537","599616099361492736","-168"
"1538","599616099369186176","-135"
"1539","599616099376879616","-123"
"1540","599616099384573056","-135"
"1541","599616099392266496","-103"
"1542","599616099399959936","-72"
"1543","599616099407653504","-91"
"1544","599616099415346944","-84"
"1545","599616099423040384","-26"
"1546","599616099430733824","-21"
"1547","599616099438427264","-72"
"1548","599616099446120704","-86"
"1549","599616099453814272","-60"
"1550","599616099461507712","-43"
"1551","599616099469201152","-65"
"1552","599616099476894592","-106"
"1553","599616099484588032","-149"
"1554","599616099492281472","-144"
"1555","599616099499975040","-125"
"1556","599616099507668480","-156"
"1557","599616099515361920","-144"
"1558","599616099523055360","-82"
"1559","599616099530748800","-77"
"1560","599616099538442368","-65"
"1561","599616099546135808","-9"
"1562","599616099553829248","-67"
"1563","599616099561522688","-125"
"1564","599616099569216128","0"
"1565","599616099576909568","45"
"1566","599616099584603136","-94"
"1567","599616099592296576","-149"
"1568","599616099599990016","-101"
"1569","599616099607683456","-115"
"1570","599616099615376896","-168"
"1571","599616099623070336","-171"
"1572","599616099630763904","-89"
"1573","599616099638457344","-2"
"1574","599616099646150784","-86"
"1575","599616099653844224","-209"
"1576","599616099661537664","-147"
"1577","599616099669231232","-98"
"1578","599616099676924672","-214"
"1579","599616099684618112","-270"
"1580","599616099692311552","-226"
"1581","599616099700004992","-238"
"1582","599616099707698432","-282"
"1583","599616099715392000","-320"
"1584","599616099723085440","-354"
"1585","599616099730778880","-270"
"1586","599616099738472320","2"
"1587","599616099746165760","357"
"1588","599616099753859200","477"
"1589","599616099761552768","106"
"1590","599616099769246208","-328"
"1591","599616099776939648","-364"
"1592","599616099784633088","-275"
"1593","599616099792326528","-253"
"1594","599616099800019968","-224"
"1595","599616099807713536","-217"
"1596","599616099815406976","-221"
"1597","599616099823100416","-200"
"1598","599616099830793856","-166"
"1599","599616099838487296","-156"
"1600","599616099846180864","-164"
"1601","599616099853874304","-159"
"1602","599616099861567744","-142"
"1603","599616099869261184","-137"
"1604","599616099876954624","-115"
"1605","599616099884648064","-79"
"1606","599616099892341586","-84"
"1607","599616099900035072","-110"
"1608","599616099907728512","-108"
"1609","599616099915421952","-123"
"1610","599616099923115520","-84"
"1611","599616099930808960","38"
"1612","599616099938502400","48"
"1613","599616099946195840","21"
"1614","599616099953889280","101"
"1615","599616099961582720","79"
"1616","599616099969276288","43"
"1617","599616099976969728","267"
"1618","599616099984663168","513"
"1619","599616099992356608","526"
"1620","599616100000050048","427"
"1621","599616100007743488","369"
"1622","599616100015437056","279"
"1623","599616100023130496","86"
"1624","599616100030823936","16"
"1625","599616100038517376","139"
"1626","599616100046210816","110"
"1627","599616100053904256","-84"
"1628","599616100061597824","-103"
"1629","599616100069291264","4"
"1630","599616100076984704","-69"
"1631","599616100084678144","-195"
"1632","599616100092371584","-108"
"1633","599616100100065152","-53"
"1634","599616100107758592","-190"
"1635","599616100115452032","-255"
"1636","599616100123145472","-161"
"1637","599616100130838912","-110"
"1638","599616100138532352","-144"
"1639","599616100146225920","-139"
"1640","599616100153919360","-101"
"1641","599616100161612800","-115"
"1642","599616100169306240","-178"
"1643","599616100176999680","-207"
"1644","599616100184693120","-190"
"1645","599616100192386688","-176"
"1646","599616100200080128","-161"
"1647","599616100207773568","-147"
"1648","599616100215467008","-149"
"1649","599616100223160448","-171"
"1650","599616100230854016","-195"
"1651","599616100238547456","-197"
"1652","599616100246240896","-125"
"1653","599616100253934336","86"
"1654","599616100261627776","386"
"1655","599616100269321216","448"
"1656","599616100277014784","82"
"1657","599616100284708224","-267"
"1658","599616100292401664","-282"
"1659","599616100300095104","-250"
"1660","599616100307788544","-277"
"1661","599616100315481984","-229"
"1662","599616100323175552","-178"
"1663","599616100330868992","-214"
"1664","599616100338562432","-238"
"1665","599616100346255872","-193"
"1666","599616100353949312","-149"
"1667","599616100361642752","-135"
"1668","599616100369336320","-135"
"1669","599616100377029760","-118"
"1670","599616100384723200","-77"
"1671","599616100392416640","-33"
"1672","599616100400110080","65"
"1673","599616100407803648","200"
"1674","599616100415497088","323"
"1675","599616100423190528","451"
"1676","599616100430883968","448"
"1677","599616100438577408","383"
"1678","599616100446270848","441"
"1679","599616100453964340","400"
"1680","599616100461657856","277"
"1681","599616100469351424","306"
"1682","599616100477044864","335"
"1683","599616100484738432","236"
"1684","599616100492432000","74"
"1685","599616100500125568","19"
"1686","599616100507819008","125"
"1687","599616100515512576","82"
"1688","599616100523206144","-82"
"1689","599616100530899584","-108"
"1690","599616100538593152","-108"
"1691","599616100546286720","-154"
"1692","599616100553980288","-168"
"1693","599616100561673728","-173"
"1694","599616100569367296","-197"
"1695","599616100577060864","-200"
"1696","599616100584754432","-188"
"1697","599616100592447872","-193"
"1698","599616100600141440","-195"
"1699","599616100607835008","-185"
"1700","599616100615528448","-185"
"1701","599616100623222016","-190"
"1702","599616100630915584","-178"
"1703","599616100638609152","-149"
"1704","599616100646302592","-110"
"1705","599616100653996160","-84"
"1706","599616100661689728","-98"
"1707","599616100669383168","-123"
"1708","599616100677076736","-98"
"1709","599616100684770304","-82"
"1710","599616100692463872","-144"
"1711","599616100700157312","-188"
"1712","599616100707850880","-176"
"1713","599616100715544448","-183"
"1714","599616100723237888","-205"
"1715","599616100730931456","-197"
"1716","599616100738625024","-226"
"1717","599616100746318592","-287"
"1718","599616100754012032","-183"
"1719","599616100761705600","98"
"1720","599616100769399168","388"
"1721","599616100777092608","516"
"1722","599616100784786176","241"
"1723","599616100792479744","-214"
"1724","599616100800173312","-296"
"1725","599616100807866752","-142"
"1726","599616100815560320","-135"
"1727","599616100823253888","-137"
"1728","599616100830947456","-53"
"1729","599616100838640896","19"
"1730","599616100846334464","159"
"1731","599616100854028032","337"
"1732","599616100861721472","349"
"1733","599616100869415040","265"
"1734","599616100877108608","316"
"1735","599616100884802176","393"
"1736","599616100892495616","311"
"1737","599616100900189184","197"
"1738","599616100907882752","154"
"1739","599616100915576192","156"
"1740","599616100923269760","147"
"1741","599616100930963328","77"
"1742","599616100938656896","106"
"1743","599616100946350336","219"
"1744","599616100954043904","195"
"1745","599616100961737472","130"
"1746","599616100969430912","156"
"1747","599616100977124480","139"
"1748","599616100984818048","91"
"1749","599616100992511616","156"
"1750","599616101000205056","229"
"1751","599616101007898624","180"
"1752","599616101015592180","132"
"1753","599616101023285760","127"
"1754","599616101030979328","55"
"1755","599616101038672768","-43"
"1756","599616101046366336","-86"
"1757","599616101054059904","-137"
"1758","599616101061753472","-193"
"1759","599616101069446912","-197"
"1760","599616101077140480","-207"
"1761","599616101084834048","-246"
"1762","599616101092527488","-238"
"1763","599616101100221056","-195"
"1764","599616101107914624","-183"
"1765","599616101115608192","-209"
"1766","599616101123301632","-238"
"1767","599616101130995200","-234"
"1768","599616101138688768","-200"
"1769","599616101146382336","-195"
"1770","599616101154075776","-219"
"1771","599616101161769344","-209"
"1772","599616101169462912","-154"
"1773","599616101177156352","-123"
"1774","599616101184849920","-144"
"1775","599616101192543488","-171"
"1776","599616101200237056","-176"
"1777","599616101207930496","-161"
"1778","599616101215624064","-144"
"1779","599616101223317632","-173"
"1780","599616101231011072","-173"
"1781","599616101238704640","-86"
"1782","599616101246398208","-50"
"1783","599616101254091776","-94"
"1784","599616101261785216","-72"
"1785","599616101269478784","183"
"1786","599616101277172352","617"
"1787","599616101284865792","907"
"1788","599616101292559360","854"
"1789","599616101300252928","562"
"1790","599616101307946496","289"
"1791","599616101315639936","193"
"1792","599616101323333504","197"
"1793","599616101331027072","195"
"1794","599616101338720512","166"
"1795","599616101346414080","132"
"1796","599616101354107648","101"
"1797","599616101361801216","103"
"1798","599616101369494656","108"
"1799","599616101377188224","86"
"1800","599616101384881792","60"
"1801","599616101392575360","36"
"1802","599616101400268800","7"
"1803","599616101407962368","-9"
"1804","599616101415655936","0"
"1805","599616101423349376","9"
"1806","599616101431042944","-14"
"1807","599616101438736512","-28"
"1808","599616101446430080","-31"
"1809","599616101454123520","-33"
"1810","599616101461817088","-38"
"1811","599616101469510656","-43"
"1812","599616101477204096","-36"
"1813","599616101484897664","-28"
"1814","599616101492591232","-33"
"1815","599616101500284800","-36"
"1816","599616101507978240","-19"
"1817","599616101515671808","-16"
"1818","599616101523365376","-36"
"1819","599616101531058816","-74"
"1820","599616101538752384","-135"
"1821","599616101546445952","-193"
"1822","599616101554139520","-243"
"1823","599616101561832960","-277"
"1824","599616101569526528","-275"
"1825","599616101577220020","-284"
"1826","599616101584913536","-316"
"1827","599616101592607104","-325"
"1828","599616101600300544","-272"
"1829","599616101607994112","-224"
"1830","599616101615687680","-255"
"1831","599616101623381248","-335"
"1832","599616101631074688","-359"
"1833","599616101638768256","-325"
"1834","599616101646461824","-267"
"1835","599616101654155264","-200"
"1836","599616101661848832","-188"
"1837","599616101669542400","-171"
"1838","599616101677235968","-98"
"1839","599616101684929408","-86"
"1840","599616101692622976","-115"
"1841","599616101700316544","-69"
"1842","599616101708010112","0"
"1843","599616101715703552","60"
"1844","599616101723397120","161"
"1845","599616101731090688","214"
"1846","599616101738784128","176"
"1847","599616101746477696","154"
"1848","599616101754171264","115"
"1849","599616101761864832","-9"
"1850","599616101769558272","-113"
"1851","599616101777251840","-69"
"1852","599616101784945408","214"
"1853","599616101792638848","658"
"1854","599616101800332416","781"
"1855","599616101808025984","332"
"1856","599616101815719552","-118"
"1857","599616101823412992","-205"
"1858","599616101831106560","-217"
"1859","599616101838800128","-250"
"1860","599616101846493568","-219"
"1861","599616101854187136","-202"
"1862","599616101861880704","-217"
"1863","599616101869574272","-197"
"1864","599616101877267712","-166"
"1865","599616101884961280","-173"
"1866","599616101892654848","-200"
"1867","599616101900348288","-190"
"1868","599616101908041856","-166"
"1869","599616101915735424","-161"
"1870","599616101923428992","-156"
"1871","599616101931122432","-137"
"1872","599616101938816000","-115"
"1873","599616101946509568","-106"
"1874","599616101954203136","-86"
"1875","599616101961896576","-57"
"1876","599616101969590144","-43"
"1877","599616101977283712","-33"
"1878","599616101984977152","-26"
"1879","599616101992670720","-31"
"1880","599616102000364288","-28"
"1881","599616102008057856","-4"
"1882","599616102015751296","-9"
"1883","599616102023444864","-50"
"1884","599616102031138432","-33"
"1885","599616102038831872","0"
"1886","599616102046525440","-67"
"1887","599616102054219008","-144"
"1888","599616102061912576","-164"
"1889","599616102069606016","-214"
"1890","599616102077299584","-272"
"1891","599616102084993152","-282"
"1892","599616102092686592","-294"
"1893","599616102100380160","-258"
"1894","599616102108073728","-168"
"1895","599616102115767296","-159"
"1896","599616102123460736","-159"
"1897","599616102131154304","-77"
"1898","599616102138847860","-36"
"1899","599616102146541440","-48"
"1900","599616102154235008","-33"
"1901","599616102161928448","43"
"1902","599616102169622016","166"
"1903","599616102177315584","260"
"1904","599616102185009152","279"
"1905","599616102192702592","253"
"1906","599616102200396160","207"
"1907","599616102208089728","152"
"1908","599616102215783168","91"
"1909","599616102223476736","36"
"1910","599616102231170304","16"
"1911","599616102238863872","12"
"1912","599616102246557312","7"
"1913","599616102254250880","-26"
"1914","599616102261944448","-79"
"1915","599616102269638016","-77"
"1916","599616102277331456","-86"
"1917","599616102285025024","-185"
"1918","599616102292718592","-176"
"1919","599616102300412032","77"
"1920","599616102308105600","398"
"1921","599616102315799168","518"
"1922","599616102323492736","265"
"1923","599616102331186176","-101"
"1924","599616102338879744","-224"
"1925","599616102346573312","-217"
"1926","599616102354266752","-234"
"1927","599616102361960320","-226"
"1928","599616102369653888","-214"
"1929","599616102377347456","-202"
"1930","599616102385040896","-180"
"1931","599616102392734464","-168"
"1932","599616102400428032","-166"
"1933","599616102408121472","-159"
"1934","599616102415815040","-132"
"1935","599616102423508608","-123"
"1936","599616102431202176","-161"
"1937","599616102438895616","-164"
"1938","599616102446589184","-127"
"1939","599616102454282752","-130"
"1940","599616102461976192","-125"
"1941","599616102469669760","-96"
"1942","599616102477363328","-101"
"1943","599616102485056896","-108"
"1944","599616102492750336","-62"
"1945","599616102500443904","-31"
"1946","599616102508137472","-57"
"1947","599616102515831040","-67"
"1948","599616102523524480","-53"
"1949","599616102531218048","-48"
"1950","599616102538911616","-16"
"1951","599616102546605056","28"
"1952","599616102554298624","4"
"1953","599616102561992192","-36"
"1954","599616102569685760","-9"
"1955","599616102577379200","-12"
"1956","599616102585072768","-98"
"1957","599616102592766336","-60"
"1958","599616102600459776","84"
"1959","599616102608153344","48"
"1960","599616102615846912","-60"
"1961","599616102623540480","0"
"1962","599616102631233920","60"
"1963","599616102638927488","-36"
"1964","599616102646621056","-132"
"1965","599616102654314496","-125"
"1966","599616102662008064","-125"
"1967","599616102669701632","-149"
"1968","599616102677395200","-164"
"1969","599616102685088640","-190"
"1970","599616102692782208","-190"
"1971","599616102700475700","-142"
"1972","599616102708169216","-108"
"1973","599616102715862784","-130"
"1974","599616102723556224","-183"
"1975","599616102731249792","-226"
"1976","599616102738943360","-241"
"1977","599616102746636928","-231"
"1978","599616102754330368","-236"
"1979","599616102762023936","-258"
"1980","599616102769717504","-253"
"1981","599616102777410944","-263"
"1982","599616102785104512","-304"
"1983","599616102792798080","-328"
"1984","599616102800491648","-258"
"1985","599616102808185088","-31"
"1986","599616102815878656","296"
"1987","599616102823572224","492"
"1988","599616102831265792","287"
"1989","599616102838959232","-130"
"1990","599616102846652800","-299"
"1991","599616102854346368","-267"
"1992","599616102862039808","-246"
"1993","599616102869733376","-231"
"1994","599616102877426944","-241"
"1995","599616102885120512","-250"
"1996","599616102892813952","-200"
"1997","599616102900507520","-166"
"1998","599616102908201088","-190"
"1999","599616102915894528","-202"
"2000","599616102923588096","-171"
"2001","599616102931281664","-147"
"2002","599616102938975232","-152"
"2003","599616102946668672","-159"
"2004","599616102954362240","-164"
"2005","599616102962055808","-168"
"2006","599616102969749248","-152"
"2007","599616102977442816","-101"
"2008","599616102985136384","-69"
"2009","599616102992829952","-91"
"2010","599616103000523392","-43"
"2011","599616103008216960","60"
"2012","599616103015910528","45"
"2013","599616103023603968","16"
"2014","599616103031297536","113"
"2015","599616103038991104","195"
"2016","599616103046684672","241"
"2017","599616103054378112","381"
"2018","599616103062071680","468"
"2019","599616103069765248","378"
"2020","599616103077458816","325"
"2021","599616103085152256","325"
"2022","599616103092845824","178"
"2023","599616103100539392","12"
"2024","599616103108232832","-2"
"2025","599616103115926400","60"
"2026","599616103123619968","89"
"2027","599616103131313536","12"
"2028","599616103139006976","-60"
"2029","599616103146700544","-41"
"2030","599616103154394112","-43"
"2031","599616103162087552","-74"
"2032","599616103169781120","-91"
"2033","599616103177474688","-125"
"2034","599616103185168256","-147"
"2035","599616103192861696","-127"
"2036","599616103200555264","-115"
"2037","599616103208248832","-123"
"2038","599616103215942272","-127"
"2039","599616103223635840","-132"
"2040","599616103231329408","-156"
"2041","599616103239022976","-188"
"2042","599616103246716416","-202"
"2043","599616103254409984","-200"
"2044","599616103262103540","-193"
"2045","599616103269797120","-195"
"2046","599616103277490688","-212"
"2047","599616103285184128","-234"
"2048","599616103292877696","-272"
"2049","599616103300571264","-289"
"2050","599616103308264832","-147"
"2051","599616103315958272","164"
"2052","599616103323651840","427"
"2053","599616103331345408","335"
"2054","599616103339038848","-79"
"2055","599616103346732416","-316"
"2056","599616103354425984","-270"
"2057","599616103362119552","-258"
"2058","599616103369812992","-294"
"2059","599616103377506560","-294"
"2060","599616103385200128","-294"
"2061","599616103392893696","-243"
"2062","599616103400587136","-185"
"2063","599616103408280704","-214"
"2064","599616103415974272","-217"
"2065","599616103423667712","-159"
"2066","599616103431361280","-120"
"2067","599616103439054848","-84"
"2068","599616103446748416","-62"
"2069","599616103454441856","-94"
"2070","599616103462135424","-139"
"2071","599616103469828992","-101"
"2072","599616103477522432","84"
"2073","599616103485216000","301"
"2074","599616103492909568","352"
"2075","599616103500603136","277"
"2076","599616103508296576","241"
"2077","599616103515990144","209"
"2078","599616103523683712","144"
"2079","599616103531377152","94"
"2080","599616103539070720","74"
"2081","599616103546764288","38"
"2082","599616103554457856","-4"
"2083","599616103562151296","9"
"2084","599616103569844864","-14"
"2085","599616103577538432","-120"
"2086","599616103585231872","-178"
"2087","599616103592925440","-159"
"2088","599616103600619008","-164"
"2089","599616103608312576","-188"
"2090","599616103616006016","-190"
"2091","599616103623699584","-197"
"2092","599616103631393152","-219"
"2093","599616103639086720","-217"
"2094","599616103646780160","-205"
"2095","599616103654473728","-202"
"2096","599616103662167296","-214"
"2097","599616103669860736","-231"
"2098","599616103677554304","-234"
"2099","599616103685247872","-209"
"2100","599616103692941440","-178"
"2101","599616103700634880","-164"
"2102","599616103708328448","-159"
"2103","599616103716022016","-159"
"2104","599616103723715456","-166"
"2105","599616103731409024","-188"
"2106","599616103739102592","-224"
"2107","599616103746796160","-246"
"2108","599616103754489600","-238"
"2109","599616103762183168","-241"
"2110","599616103769876736","-255"
"2111","599616103777570176","-263"
"2112","599616103785263744","-272"
"2113","599616103792957312","-299"
"2114","599616103800650880","-316"
"2115","599616103808344320","-180"
"2116","599616103816037888","135"
"2117","599616103823731380","427"
"2118","599616103831424896","390"
"2119","599616103839118464","-36"
"2120","599616103846811904","-376"
"2121","599616103854505472","-342"
"2122","599616103862199040","-260"
"2123","599616103869892608","-265"
"2124","599616103877586048","-219"
"2125","599616103885279616","-168"
"2126","599616103892973184","-96"
"2127","599616103900666624","14"
"2128","599616103908360192","21"
"2129","599616103916053760","33"
"2130","599616103923747328","178"
"2131","599616103931440768","275"
"2132","599616103939134336","313"
"2133","599616103946827904","439"
"2134","599616103954521472","542"
"2135","599616103962214912","518"
"2136","599616103969908480","538"
"2137","599616103977602048","668"
"2138","599616103985295488","716"
"2139","599616103992989056","670"
"2140","599616104000682624","627"
"2141","599616104008376192","526"
"2142","599616104016069632","337"
"2143","599616104023763200","130"
"2144","599616104031456768","33"
"2145","599616104039150208","45"
"2146","599616104046843776","-12"
"2147","599616104054537344","-113"
"2148","599616104062230912","-130"
"2149","599616104069924352","-132"
"2150","599616104077617920","-183"
"2151","599616104085311488","-231"
"2152","599616104093004928","-248"
"2153","599616104100698496","-243"
"2154","599616104108392064","-241"
"2155","599616104116085632","-243"
"2156","599616104123779072","-263"
"2157","599616104131472640","-272"
"2158","599616104139166208","-236"
"2159","599616104146859648","-224"
"2160","599616104154553216","-248"
"2161","599616104162246784","-234"
"2162","599616104169940352","-217"
"2163","599616104177633792","-236"
"2164","599616104185327360","-258"
"2165","599616104193020928","-234"
"2166","599616104200714496","-156"
"2167","599616104208407936","-120"
"2168","599616104216101504","-168"
"2169","599616104223795072","-221"
"2170","599616104231488512","-246"
"2171","599616104239182080","-253"
"2172","599616104246875648","-246"
"2173","599616104254569216","-243"
"2174","599616104262262656","-260"
"2175","599616104269956224","-258"
"2176","599616104277649792","-231"
"2177","599616104285343232","-246"
"2178","599616104293036800","-291"
"2179","599616104300730368","-263"
"2180","599616104308423936","-28"
"2181","599616104316117376","337"
"2182","599616104323810944","554"
"2183","599616104331504512","446"
"2184","599616104339197952","214"
"2185","599616104346891520","238"
"2186","599616104354585088","480"
"2187","599616104362278656","569"
"2188","599616104369972096","415"
"2189","599616104377665664","258"
"2190","599616104385359222","279"
"2191","599616104393052800","308"
"2192","599616104400746368","183"
"2193","599616104408439808","82"
"2194","599616104416133376","125"
"2195","599616104423826944","135"
"2196","599616104431520512","91"
"2197","599616104439213952","74"
"2198","599616104446907520","28"
"2199","599616104454601088","53"
"2200","599616104462294528","115"
"2201","599616104469988096","55"
"2202","599616104477681664","7"
"2203","599616104485375232","31"
"2204","599616104493068672","16"
"2205","599616104500762240","4"
"2206","599616104508455808","24"
"2207","599616104516149376","4"
"2208","599616104523842816","-21"
"2209","599616104531536384","0"
"2210","599616104539229952","31"
"2211","599616104546923392","9"
"2212","599616104554616960","-45"
"2213","599616104562310528","-50"
"2214","599616104570004096","-36"
"2215","599616104577697536","-65"
"2216","599616104585391104","-113"
"2217","599616104593084672","-154"
"2218","599616104600778112","-190"
"2219","599616104608471680","-226"
"2220","599616104616165248","-241"
"2221","599616104623858816","-236"
"2222","599616104631552256","-255"
"2223","599616104639245824","-270"
"2224","599616104646939392","-253"
"2225","599616104654632832","-246"
"2226","599616104662326400","-265"
"2227","599616104670019968","-270"
"2228","599616104677713536","-258"
"2229","599616104685406976","-214"
"2230","599616104693100544","-154"
"2231","599616104700794112","-178"
"2232","599616104708487552","-246"
"2233","599616104716181120","-226"
"2234","599616104723874688","-173"
"2235","599616104731568256","-132"
"2236","599616104739261696","-94"
"2237","599616104746955264","-89"
"2238","599616104754648832","-115"
"2239","599616104762342400","-127"
"2240","599616104770035840","-65"
"2241","599616104777729408","45"
"2242","599616104785422976","82"
"2243","599616104793116416","60"
"2244","599616104800809984","94"
"2245","599616104808503552","221"
"2246","599616104816197120","484"
"2247","599616104823890560","694"
"2248","599616104831584128","456"
"2249","599616104839277696","-19"
"2250","599616104846971136","-202"
"2251","599616104854664704","-180"
"2252","599616104862358272","-193"
"2253","599616104870051840","-188"
"2254","599616104877745280","-166"
"2255","599616104885438848","-188"
"2256","599616104893132416","-207"
"2257","599616104900825856","-180"
"2258","599616104908519424","-166"
"2259","599616104916212992","-193"
"2260","599616104923906560","-207"
"2261","599616104931600000","-173"
"2262","599616104939293568","-123"
"2263","599616104946987062","-118"
"2264","599616104954680576","-132"
"2265","599616104962374144","-123"
"2266","599616104970067584","-101"
"2267","599616104977761152","-82"
"2268","599616104985454720","-74"
"2269","599616104993148288","-55"
"2270","599616105000841728","-26"
"2271","599616105008535296","-26"
"2272","599616105016228864","-28"
"2273","599616105023922304","-4"
"2274","599616105031615872","4"
"2275","599616105039309440","0"
"2276","599616105047003008","-12"
"2277","599616105054696448","-24"
"2278","599616105062390016","-24"
"2279","599616105070083584","-69"
"2280","599616105077777152","-144"
"2281","599616105085470592","-164"
"2282","599616105093164160","-161"
"2283","599616105100857728","-219"
"2284","599616105108551168","-284"
"2285","599616105116244736","-308"
"2286","599616105123938304","-318"
"2287","599616105131631872","-279"
"2288","599616105139325312","-188"
"2289","599616105147018880","-202"
"2290","599616105154712448","-291"
"2291","599616105162405888","-260"
"2292","599616105170099456","-171"
"2293","599616105177793024","-190"
"2294","599616105185486592","-154"
"2295","599616105193180032","-19"
"2296","599616105200873600","-62"
"2297","599616105208567168","-65"
"2298","599616105216260608","127"
"2299","599616105223954176","113"
"2300","599616105231647744","-26"
"2301","599616105239341312","36"
"2302","599616105247034752","82"
"2303","599616105254728320","-36"
"2304","599616105262421888","-110"
"2305","599616105270115328","-135"
"2306","599616105277808896","-188"
"2307","599616105285502464","-234"
"2308","599616105293196032","-253"
"2309","599616105300889472","-152"
"2310","599616105308583040","166"
"2311","599616105316276608","516"
"2312","599616105323970176","538"
"2313","599616105331663616","173"
"2314","599616105339357184","-185"
"2315","599616105347050752","-291"
"2316","599616105354744192","-279"
"2317","599616105362437760","-279"
"2318","599616105370131328","-282"
"2319","599616105377824896","-260"
"2320","599616105385518336","-241"
"2321","599616105393211904","-238"
"2322","599616105400905472","-214"
"2323","599616105408598912","-200"
"2324","599616105416292480","-214"
"2325","599616105423986048","-202"
"2326","599616105431679616","-161"
"2327","599616105439373056","-139"
"2328","599616105447066624","-147"
"2329","599616105454760192","-137"
"2330","599616105462453632","-106"
"2331","599616105470147200","-91"
"2332","599616105477840768","-94"
"2333","599616105485534336","-84"
"2334","599616105493227776","-69"
"2335","599616105500921344","-57"
"2336","599616105508614902","-48"
"2337","599616105516308480","-41"
"2338","599616105524002048","-55"
"2339","599616105531695488","-67"
"2340","599616105539389056","-48"
"2341","599616105547082624","-45"
"2342","599616105554776192","-62"
"2343","599616105562469632","-55"
"2344","599616105570163200","-74"
"2345","599616105577856768","-137"
"2346","599616105585550208","-190"
"2347","599616105593243776","-221"
"2348","599616105600937344","-246"
"2349","599616105608630912","-241"
"2350","599616105616324352","-226"
"2351","599616105624017920","-265"
"2352","599616105631711488","-265"
"2353","599616105639405056","-176"
"2354","599616105647098496","-118"
"2355","599616105654792064","-137"
"2356","599616105662485632","-144"
"2357","599616105670179072","-74"
"2358","599616105677872640","50"
"2359","599616105685566208","209"
"2360","599616105693259776","272"
"2361","599616105700953216","188"
"2362","599616105708646784","149"
"2363","599616105716340352","144"
"2364","599616105724033792","77"
"2365","599616105731727360","41"
"2366","599616105739420928","31"
"2367","599616105747114496","26"
"2368","599616105754807936","41"
"2369","599616105762501504","4"
"2370","599616105770195072","-72"
"2371","599616105777888512","-96"
"2372","599616105785582080","-96"
"2373","599616105793275648","-118"
"2374","599616105800969216","-41"
"2375","599616105808662656","221"
"2376","599616105816356224","465"
"2377","599616105824049792","386"
"2378","599616105831743232","26"
"2379","599616105839436800","-221"
"2380","599616105847130368","-260"
"2381","599616105854823936","-255"
"2382","599616105862517376","-231"
"2383","599616105870210944","-195"
"2384","599616105877904512","-195"
"2385","599616105885598080","-205"
"2386","599616105893291520","-188"
"2387","599616105900985088","-178"
"2388","599616105908678656","-171"
"2389","599616105916372096","-154"
"2390","599616105924065664","-142"
"2391","599616105931759232","-123"
"2392","599616105939452800","-115"
"2393","599616105947146240","-127"
"2394","599616105954839808","-118"
"2395","599616105962533376","-94"
"2396","599616105970226816","-94"
"2397","599616105977920384","-94"
"2398","599616105985613952","-86"
"2399","599616105993307520","-79"
"2400","599616106001000960","-67"
"2401","599616106008694528","-60"
"2402","599616106016388096","-65"
"2403","599616106024081536","-72"
"2404","599616106031775104","-65"
"2405","599616106039468672","-72"
"2406","599616106047162240","-106"
"2407","599616106054855680","-123"
"2408","599616106062549248","-137"
"2409","599616106070242742","-161"
"2410","599616106077936256","-176"
"2411","599616106085629824","-221"
"2412","599616106093323264","-260"
"2413","599616106101016832","-250"
"2414","599616106108710400","-217"
"2415","599616106116403968","-144"
"2416","599616106124097408","-103"
"2417","599616106131790976","-135"
"2418","599616106139484544","-38"
"2419","599616106147177984","224"
"2420","599616106154871552","323"
"2421","599616106162565120","147"
"2422","599616106170258688","-2"
"2423","599616106177952128","94"
"2424","599616106185645696","214"
"2425","599616106193339264","118"
"2426","599616106201032832","4"
"2427","599616106208726272","12"
"2428","599616106216419840","-16"
"2429","599616106224113408","-94"
"2430","599616106231806848","-149"
"2431","599616106239500416","-144"
"2432","599616106247193984","-125"
"2433","599616106254887552","-159"
"2434","599616106262580992","-212"
"2435","599616106270274560","-234"
"2436","599616106277968128","-258"
"2437","599616106285661568","-313"
"2438","599616106293355136","-279"
"2439","599616106301048704","-14"
"2440","599616106308742272","371"
"2441","599616106316435712","526"
"2442","599616106324129280","173"
"2443","599616106331822848","-318"
"2444","599616106339516288","-415"
"2445","599616106347209856","-304"
"2446","599616106354903424","-267"
"2447","599616106362596992","-229"
"2448","599616106370290432","-188"
"2449","599616106377984000","-188"
"2450","599616106385677568","-183"
"2451","599616106393371008","-154"
"2452","599616106401064576","-135"
"2453","599616106408758144","-130"
"2454","599616106416451712","-135"
"2455","599616106424145152","-137"
"2456","599616106431838720","-137"
"2457","599616106439532288","-154"
"2458","599616106447225856","-168"
"2459","599616106454919296","-144"
"2460","599616106462612864","-123"
"2461","599616106470306432","-156"
"2462","599616106477999872","-164"
"2463","599616106485693440","-91"
"2464","599616106493387008","-69"
"2465","599616106501080576","-135"
"2466","599616106508774016","-118"
"2467","599616106516467584","-74"
"2468","599616106524161152","-115"
"2469","599616106531854592","-108"
"2470","599616106539548160","-50"
"2471","599616106547241728","-38"
"2472","599616106554935296","-16"
"2473","599616106562628736","31"
"2474","599616106570322304","2"
"2475","599616106578015872","-60"
"2476","599616106585709312","-48"
"2477","599616106593402880","-19"
"2478","599616106601096448","-65"
"2479","599616106608790016","-74"
"2480","599616106616483456","-7"
"2481","599616106624177024","-28"
"2482","599616106631870582","-65"
"2483","599616106639564160","-21"
"2484","599616106647257728","-65"
"2485","599616106654951168","-147"
"2486","599616106662644736","-132"
"2487","599616106670338304","-118"
"2488","599616106678031872","-130"
"2489","599616106685725312","-118"
"2490","599616106693418880","-101"
"2491","599616106701112448","-74"
"2492","599616106708805888","-86"
"2493","599616106716499456","-154"
"2494","599616106724193024","-161"
"2495","599616106731886592","-118"
"2496","599616106739580032","-132"
"2497","599616106747273600","-168"
"2498","599616106754967168","-159"
"2499","599616106762660736","-171"
"2500","599616106770354176","-224"
"2501","599616106778047744","-277"
"2502","599616106785741312","-275"
"2503","599616106793434752","-113"
"2504","599616106801128320","214"
"2505","599616106808821888","542"
"2506","599616106816515456","499"
"2507","599616106824208896","33"
"2508","599616106831902464","-289"
"2509","599616106839596032","-275"
"2510","599616106847289472","-243"
"2511","599616106854983040","-258"
"2512","599616106862676608","-243"
"2513","599616106870370176","-226"
"2514","599616106878063616","-214"
"2515","599616106885757184","-200"
"2516","599616106893450752","-214"
"2517","599616106901144192","-224"
"2518","599616106908837760","-197"
"2519","599616106916531328","-161"
"2520","599616106924224896","-142"
"2521","599616106931918336","-149"
"2522","599616106939611904","-156"
"2523","599616106947305472","-142"
"2524","599616106954998912","-135"
"2525","599616106962692480","-164"
"2526","599616106970386048","-171"
"2527","599616106978079616","-118"
"2528","599616106985773056","-48"
"2529","599616106993466624","-24"
"2530","599616107001160192","-57"
"2531","599616107008853760","-60"
"2532","599616107016547200","14"
"2533","599616107024240768","69"
"2534","599616107031934336","14"
"2535","599616107039627776","-166"
"2536","599616107047321344","-410"
"2537","599616107055014912","-422"
"2538","599616107062708480","-19"
"2539","599616107070401920","390"
"2540","599616107078095488","443"
"2541","599616107085789056","349"
"2542","599616107093482496","320"
"2543","599616107101176064","207"
"2544","599616107108869632","9"
"2545","599616107116563200","-48"
"2546","599616107124256640","-24"
"2547","599616107131950208","-53"
"2548","599616107139643776","-69"
"2549","599616107147337216","-67"
"2550","599616107155030784","-74"
"2551","599616107162724352","-50"
"2552","599616107170417920","-24"
"2553","599616107178111360","-21"
"2554","599616107185804928","-2"
"2555","599616107193498422","-7"
"2556","599616107201192192","-43"
"2557","599616107208886016","-67"
"2558","599616107216579968","-74"
"2559","599616107224273792","-62"
"2560","599616107231967744","-60"
"2561","599616107239661568","-74"
"2562","599616107247355520","-65"
"2563","599616107255049344","-74"
"2564","599616107262743296","-144"
"2565","599616107270437120","-221"
"2566","599616107278130944","-241"
"2567","599616107285824896","-86"
"2568","599616107293518720","287"
"2569","599616107301212672","663"
"2570","599616107308906496","620"
"2571","599616107316600448","137"
"2572","599616107324294272","-200"
"2573","599616107331988096","-217"
"2574","599616107339682048","-207"
"2575","599616107347375872","-226"
"2576","599616107355069824","-214"
"2577","599616107362763648","-195"
"2578","599616107370457600","-197"
"2579","599616107378151424","-188"
"2580","599616107385845376","-164"
"2581","599616107393539200","-166"
"2582","599616107401233024","-173"
"2583","599616107408926976","-166"
"2584","599616107416620800","-183"
"2585","599616107424314752","-205"
"2586","599616107432008576","-152"
"2587","599616107439702528","-135"
"2588","599616107447396352","-190"
"2589","599616107455090304","-144"
"2590","599616107462784128","-69"
"2591","599616107470477952","-45"
"2592","599616107478171904","31"
"2593","599616107485865728","91"
"2594","599616107493559680","72"
"2595","599616107501253504","50"
"2596","599616107508947456","77"
"2597","599616107516641280","197"
"2598","599616107524335232","381"
"2599","599616107532029056","468"
"2600","599616107539722880","412"
"2601","599616107547416832","347"
"2602","599616107555110656","328"
"2603","599616107562804608","234"
"2604","599616107570498432","86"
"2605","599616107578192384","19"
"2606","599616107585886208","19"
"2607","599616107593580032","-7"
"2608","599616107601273984","-91"
"2609","599616107608967808","-125"
"2610","599616107616661760","-86"
"2611","599616107624355584","-86"
"2612","599616107632049536","-113"
"2613","599616107639743360","-120"
"2614","599616107647437312","-147"
"2615","599616107655131136","-173"
"2616","599616107662824960","-135"
"2617","599616107670518912","-69"
"2618","599616107678212736","-55"
"2619","599616107685906688","-79"
"2620","599616107693600512","-98"
"2621","599616107701294464","-96"
"2622","599616107708988288","-96"
"2623","599616107716682240","-115"
"2624","599616107724376064","-132"
"2625","599616107732069888","-137"
"2626","599616107739763840","-137"
"2627","599616107747457664","-147"
"2628","599616107755151696","-197"
"2629","599616107762845184","-272"
"2630","599616107770538624","-270"
"2631","599616107778232064","-69"
"2632","599616107785925632","301"
"2633","599616107793619072","581"
"2634","599616107801312512","463"
"2635","599616107809005952","26"
"2636","599616107816699392","-291"
"2637","599616107824392832","-318"
"2638","599616107832086400","-260"
"2639","599616107839779840","-265"
"2640","599616107847473280","-275"
"2641","599616107855166720","-236"
"2642","599616107862860160","-217"
"2643","599616107870553600","-253"
"2644","599616107878247168","-272"
"2645","599616107885940608","-229"
"2646","599616107893634048","-164"
"2647","599616107901327488","-159"
"2648","599616107909020928","-188"
"2649","599616107916714368","-180"
"2650","599616107924407936","-178"
"2651","599616107932101376","-205"
"2652","599616107939794816","-154"
"2653","599616107947488256","-72"
"2654","599616107955181696","-89"
"2655","599616107962875264","-161"
"2656","599616107970568704","-224"
"2657","599616107978262144","-118"
"2658","599616107985955584","185"
"2659","599616107993649024","506"
"2660","599616108001342464","760"
"2661","599616108009036032","699"
"2662","599616108016729472","419"
"2663","599616108024422912","349"
"2664","599616108032116352","352"
"2665","599616108039809792","217"
"2666","599616108047503232","139"
"2667","599616108055196800","156"
"2668","599616108062890240","168"
"2669","599616108070583680","139"
"2670","599616108078277120","28"
"2671","599616108085970560","0"
"2672","599616108093664128","96"
"2673","599616108101357568","33"
"2674","599616108109051008","-86"
"2675","599616108116744448","-57"
"2676","599616108124437888","-60"
"2677","599616108132131328","-144"
"2678","599616108139824896","-171"
"2679","599616108147518336","-152"
"2680","599616108155211776","-120"
"2681","599616108162905216","-77"
"2682","599616108170598656","-84"
"2683","599616108178292096","-127"
"2684","599616108185985664","-147"
"2685","599616108193679104","-142"
"2686","599616108201372544","-147"
"2687","599616108209065984","-183"
"2688","599616108216759424","-205"
"2689","599616108224452864","-183"
"2690","599616108232146432","-180"
"2691","599616108239839872","-219"
"2692","599616108247533312","-289"
"2693","599616108255226752","-347"
"2694","599616108262920192","-253"
"2695","599616108270613760","48"
"2696","599616108278307200","410"
"2697","599616108286000640","497"
"2698","599616108293694080","118"
"2699","599616108301387520","-267"
"2700","599616108309080960","-294"
"2701","599616108316774450","-260"
"2702","599616108324468096","-294"
"2703","599616108332161792","-258"
"2704","599616108339855488","-217"
"2705","599616108347549056","-241"
"2706","599616108355242752","-238"
"2707","599616108362936448","-200"
"2708","599616108370630144","-214"
"2709","599616108378323840","-265"
"2710","599616108386017408","-234"
"2711","599616108393711104","-156"
"2712","599616108401404800","-113"
"2713","599616108409098496","-62"
"2714","599616108416792192","-41"
"2715","599616108424485888","-57"
"2716","599616108432179456","-26"
"2717","599616108439873152","38"
"2718","599616108447566848","110"
"2719","599616108455260544","185"
"2720","599616108462954240","176"
"2721","599616108470647808","72"
"2722","599616108478341504","77"
"2723","599616108486035200","205"
"2724","599616108493728896","171"
"2725","599616108501422592","26"
"2726","599616108509116160","24"
"2727","599616108516809856","57"
"2728","599616108524503552","-19"
"2729","599616108532197248","-84"
"2730","599616108539890944","-96"
"2731","599616108547584512","-156"
"2732","599616108555278208","-234"
"2733","599616108562971904","-265"
"2734","599616108570665600","-263"
"2735","599616108578359296","-250"
"2736","599616108586052864","-265"
"2737","599616108593746560","-291"
"2738","599616108601440256","-279"
"2739","599616108609133952","-265"
"2740","599616108616827648","-287"
"2741","599616108624521344","-304"
"2742","599616108632214912","-287"
"2743","599616108639908608","-243"
"2744","599616108647602304","-190"
"2745","599616108655296000","-178"
"2746","599616108662989696","-195"
"2747","599616108670683264","-193"
"2748","599616108678376960","-188"
"2749","599616108686070656","-200"
"2750","599616108693764352","-209"
"2751","599616108701458048","-212"
"2752","599616108709151616","-219"
"2753","599616108716845312","-217"
"2754","599616108724539008","-221"
"2755","599616108732232704","-299"
"2756","599616108739926400","-405"
"2757","599616108747619968","-332"
"2758","599616108755313664","14"
"2759","599616108763007360","475"
"2760","599616108770701056","673"
"2761","599616108778394752","234"
"2762","599616108786088320","-378"
"2763","599616108793782016","-443"
"2764","599616108801475712","-241"
"2765","599616108809169408","-236"
"2766","599616108816863104","-301"
"2767","599616108824556800","-289"
"2768","599616108832250368","-250"
"2769","599616108839944064","-205"
"2770","599616108847637760","-156"
"2771","599616108855331456","-130"
"2772","599616108863025152","-108"
"2773","599616108870718720","-57"
"2774","599616108878412462","-21"
"2775","599616108886105984","-33"
"2776","599616108893799552","-28"
"2777","599616108901492992","38"
"2778","599616108909186560","69"
"2779","599616108916880128","50"
"2780","599616108924573696","94"
"2781","599616108932267136","147"
"2782","599616108939960704","101"
"2783","599616108947654272","33"
"2784","599616108955347712","28"
"2785","599616108963041280","53"
"2786","599616108970734848","67"
"2787","599616108978428416","69"
"2788","599616108986121856","57"
"2789","599616108993815424","14"
"2790","599616109001508992","-24"
"2791","599616109009202560","-31"
"2792","599616109016896000","-31"
"2793","599616109024589568","-77"
"2794","599616109032283136","-149"
"2795","599616109039976576","-183"
"2796","599616109047670144","-197"
"2797","599616109055363712","-234"
"2798","599616109063057280","-248"
"2799","599616109070750720","-236"
"2800","599616109078444288","-243"
"2801","599616109086137856","-253"
"2802","599616109093831296","-246"
"2803","599616109101524864","-241"
"2804","599616109109218432","-241"
"2805","599616109116912000","-226"
"2806","599616109124605440","-190"
"2807","599616109132299008","-149"
"2808","599616109139992576","-113"
"2809","599616109147686016","-110"
"2810","599616109155379584","-132"
"2811","599616109163073152","-137"
"2812","599616109170766720","-154"
"2813","599616109178460160","-200"
"2814","599616109186153728","-197"
"2815","599616109193847296","-161"
"2816","599616109201540736","-164"
"2817","599616109209234304","-173"
"2818","599616109216927872","-229"
"2819","599616109224621440","-349"
"2820","599616109232314880","-340"
"2821","599616109240008448","-135"
"2822","599616109247702016","178"
"2823","599616109255395584","528"
"2824","599616109263089024","499"
"2825","599616109270782592","12"
"2826","599616109278476160","-270"
"2827","599616109286169600","-214"
"2828","599616109293863168","-207"
"2829","599616109301556736","-205"
"2830","599616109309250304","-149"
"2831","599616109316943744","-139"
"2832","599616109324637312","-123"
"2833","599616109332330880","-101"
"2834","599616109340024320","-45"
"2835","599616109347717888","96"
"2836","599616109355411456","190"
"2837","599616109363105024","166"
"2838","599616109370798464","144"
"2839","599616109378492032","173"
"2840","599616109386185600","166"
"2841","599616109393879040","106"
"2842","599616109401572608","55"
"2843","599616109409266176","43"
"2844","599616109416959744","60"
"2845","599616109424653184","72"
"2846","599616109432346752","72"
"2847","599616109440040302","53"
"2848","599616109447733888","28"
"2849","599616109455427456","28"
"2850","599616109463121152","16"
"2851","599616109470814720","-2"
"2852","599616109478508288","2"
"2853","599616109486201856","26"
"2854","599616109493895552","41"
"2855","599616109501589120","4"
"2856","599616109509282688","-53"
"2857","599616109516976256","-82"
"2858","599616109524669952","-108"
"2859","599616109532363520","-139"
"2860","599616109540057088","-171"
"2861","599616109547750656","-205"
"2862","599616109555444352","-217"
"2863","599616109563137920","-209"
"2864","599616109570831488","-202"
"2865","599616109578525056","-209"
"2866","599616109586218752","-217"
"2867","599616109593912320","-224"
"2868","599616109601605888","-219"
"2869","599616109609299584","-193"
"2870","599616109616993152","-144"
"2871","599616109624686720","-125"
"2872","599616109632380288","-147"
"2873","599616109640073984","-166"
"2874","599616109647767552","-171"
"2875","599616109655461120","-185"
"2876","599616109663154688","-202"
"2877","599616109670848384","-202"
"2878","599616109678541952","-183"
"2879","599616109686235520","-197"
"2880","599616109693929088","-236"
"2881","599616109701622784","-260"
"2882","599616109709316352","-301"
"2883","599616109717009920","-332"
"2884","599616109724703488","-212"
"2885","599616109732397184","127"
"2886","599616109740090752","526"
"2887","599616109747784320","620"
"2888","599616109755478016","263"
"2889","599616109763171584","-101"
"2890","599616109770865152","-152"
"2891","599616109778558720","-74"
"2892","599616109786252416","38"
"2893","599616109793945984","118"
"2894","599616109801639552","43"
"2895","599616109809333120","-19"
"2896","599616109817026816","14"
"2897","599616109824720384","-12"
"2898","599616109832413952","-79"
"2899","599616109840107520","-98"
"2900","599616109847801216","-127"
"2901","599616109855494784","-152"
"2902","599616109863188352","-125"
"2903","599616109870882048","-118"
"2904","599616109878575616","-137"
"2905","599616109886269184","-137"
"2906","599616109893962752","-142"
"2907","599616109901656448","-132"
"2908","599616109909350016","-67"
"2909","599616109917043584","-55"
"2910","599616109924737152","-115"
"2911","599616109932430848","-120"
"2912","599616109940124416","-72"
"2913","599616109947817984","-60"
"2914","599616109955511552","-89"
"2915","599616109963205248","-118"
"2916","599616109970898816","-113"
"2917","599616109978592384","-84"
"2918","599616109986285952","-82"
"2919","599616109993979648","-108"
"2920","599616110001673230","-137"
"2921","599616110009366656","-161"
"2922","599616110017060096","-188"
"2923","599616110024753536","-209"
"2924","599616110032447104","-212"
"2925","599616110040140544","-209"
"2926","599616110047833984","-224"
"2927","599616110055527424","-250"
"2928","599616110063220864","-241"
"2929","599616110070914304","-226"
"2930","599616110078607872","-243"
"2931","599616110086301312","-263"
"2932","599616110093994752","-236"
"2933","599616110101688192","-180"
"2934","599616110109381632","-149"
"2935","599616110117075072","-147"
"2936","599616110124768640","-154"
"2937","599616110132462080","-137"
"2938","599616110140155520","-168"
"2939","599616110147848960","-275"
"2940","599616110155542400","-231"
"2941","599616110163235840","-123"
"2942","599616110170929408","-173"
"2943","599616110178622848","-173"
"2944","599616110186316288","-53"
"2945","599616110194009728","-123"
"2946","599616110201703168","-306"
"2947","599616110209396736","-137"
"2948","599616110217090176","424"
"2949","599616110224783616","907"
"2950","599616110232477056","880"
"2951","599616110240170496","371"
"2952","599616110247863936","-82"
"2953","599616110255557504","-193"
"2954","599616110263250944","-178"
"2955","599616110270944384","-188"
"2956","599616110278637824","-209"
"2957","599616110286331264","-180"
"2958","599616110294024704","-123"
"2959","599616110301718272","-113"
"2960","599616110309411712","-135"
"2961","599616110317105152","-125"
"2962","599616110324798592","-96"
"2963","599616110332492032","-96"
"2964","599616110340185600","-113"
"2965","599616110347879040","-103"
"2966","599616110355572480","-89"
"2967","599616110363265920","-98"
"2968","599616110370959360","-110"
"2969","599616110378652800","-113"
"2970","599616110386346368","-118"
"2971","599616110394039808","-115"
"2972","599616110401733248","-94"
"2973","599616110409426688","-77"
"2974","599616110417120128","-79"
"2975","599616110424813568","-72"
"2976","599616110432507136","-48"
"2977","599616110440200576","-33"
"2978","599616110447894016","-28"
"2979","599616110455587456","-36"
"2980","599616110463280896","-53"
"2981","599616110470974336","-57"
"2982","599616110478667904","-62"
"2983","599616110486361344","-101"
"2984","599616110494054784","-147"
"2985","599616110501748224","-166"
"2986","599616110509441664","-185"
"2987","599616110517135232","-193"
"2988","599616110524828672","-180"
"2989","599616110532522112","-214"
"2990","599616110540215552","-231"
"2991","599616110547908992","-178"
"2992","599616110555602432","-164"
"2993","599616110563295984","-226"
"2994","599616110570989568","-236"
"2995","599616110578683136","-214"
"2996","599616110586376576","-200"
"2997","599616110594070144","-91"
"2998","599616110601763712","2"
"2999","599616110609457280","-53"
"3000","599616110617150720","-103"
"3001","599616110624844288","-21"
"3002","599616110632537856","82"
"3003","599616110640231296","152"
"3004","599616110647924864","168"
"3005","599616110655618432","132"
"3006","599616110663312000","144"
"3007","599616110671005440","168"
"3008","599616110678699008","69"
"3009","599616110686392576","-62"
"3010","599616110694086144","-74"
"3011","599616110701779584","106"
"3012","599616110709473152","518"
"3013","599616110717166720","839"
"3014","599616110724860160","632"
"3015","599616110732553728","171"
"3016","599616110740247296","-50"
"3017","599616110747940864","-120"
"3018","599616110755634304","-159"
"3019","599616110763327872","-135"
"3020","599616110771021440","-144"
"3021","599616110778714880","-161"
"3022","599616110786408448","-142"
"3023","599616110794102016","-147"
"3024","599616110801795584","-173"
"3025","599616110809489024","-168"
"3026","599616110817182592","-159"
"3027","599616110824876160","-149"
"3028","599616110832569600","-132"
"3029","599616110840263168","-135"
"3030","599616110847956736","-135"
"3031","599616110855650304","-113"
"3032","599616110863343744","-79"
"3033","599616110871037312","-62"
"3034","599616110878730880","-55"
"3035","599616110886424320","-36"
"3036","599616110894117888","-21"
"3037","599616110901811456","-33"
"3038","599616110909505024","-28"
"3039","599616110917198464","-7"
"3040","599616110924892032","-14"
"3041","599616110932585600","-31"
"3042","599616110940279168","-21"
"3043","599616110947972608","-19"
"3044","599616110955666176","-48"
"3045","599616110963359744","-96"
"3046","599616110971053184","-137"
"3047","599616110978746752","-144"
"3048","599616110986440320","-156"
"3049","599616110994133888","-193"
"3050","599616111001827328","-212"
"3051","599616111009520896","-226"
"3052","599616111017214464","-238"
"3053","599616111024907904","-219"
"3054","599616111032601472","-185"
"3055","599616111040295040","-188"
"3056","599616111047988608","-183"
"3057","599616111055682048","-149"
"3058","599616111063375616","-82"
"3059","599616111071069184","36"
"3060","599616111078762624","144"
"3061","599616111086456192","178"
"3062","599616111094149760","147"
"3063","599616111101843328","103"
"3064","599616111109536768","77"
"3065","599616111117230336","60"
"3066","599616111124923824","19"
"3067","599616111132617600","-41"
"3068","599616111140311424","-77"
"3069","599616111148005248","-96"
"3070","599616111155699072","-115"
"3071","599616111163392896","-144"
"3072","599616111171086592","-197"
"3073","599616111178780416","-219"
"3074","599616111186474240","-67"
"3075","599616111194168064","337"
"3076","599616111201861888","719"
"3077","599616111209555712","567"
"3078","599616111217249536","-2"
"3079","599616111224943360","-299"
"3080","599616111232637184","-272"
"3081","599616111240331008","-267"
"3082","599616111248024704","-275"
"3083","599616111255718528","-255"
"3084","599616111263412352","-253"
"3085","599616111271106176","-250"
"3086","599616111278800000","-229"
"3087","599616111286493824","-197"
"3088","599616111294187648","-183"
"3089","599616111301881472","-183"
"3090","599616111309575296","-156"
"3091","599616111317269120","-127"
"3092","599616111324962816","-130"
"3093","599616111332656640","-132"
"3094","599616111340350464","-108"
"3095","599616111348044288","-82"
"3096","599616111355738112","-65"
"3097","599616111363431936","-45"
"3098","599616111371125760","-41"
"3099","599616111378819584","-53"
"3100","599616111386513408","-48"
"3101","599616111394207104","-26"
"3102","599616111401900928","2"
"3103","599616111409594752","0"
"3104","599616111417288576","-45"
"3105","599616111424982400","-67"
"3106","599616111432676224","-79"
"3107","599616111440370048","-91"
"3108","599616111448063872","-50"
"3109","599616111455757696","-69"
"3110","599616111463451520","-147"
"3111","599616111471145216","-137"
"3112","599616111478839040","-94"
"3113","599616111486532864","-67"
"3114","599616111494226688","-65"
"3115","599616111501920512","-50"
"3116","599616111509614336","36"
"3117","599616111517308160","91"
"3118","599616111525001984","16"
"3119","599616111532695808","-84"
"3120","599616111540389632","-91"
"3121","599616111548083328","-48"
"3122","599616111555777152","-43"
"3123","599616111563470976","-36"
"3124","599616111571164800","-19"
"3125","599616111578858624","-45"
"3126","599616111586552448","-43"
"3127","599616111594246272","-12"
"3128","599616111601940096","-60"
"3129","599616111609633920","-127"
"3130","599616111617327616","-120"
"3131","599616111625021440","-108"
"3132","599616111632715264","-130"
"3133","599616111640409088","-137"
"3134","599616111648102912","-164"
"3135","599616111655796736","-250"
"3136","599616111663490560","-289"
"3137","599616111671184384","-130"
"3138","599616111678878208","243"
"3139","599616111686572010","588"
"3140","599616111694265472","482"
"3141","599616111701958912","-41"
"3142","599616111709652352","-345"
"3143","599616111717345920","-306"
"3144","599616111725039360","-275"
"3145","599616111732732800","-272"
"3146","599616111740426240","-234"
"3147","599616111748119680","-221"
"3148","599616111755813120","-217"
"3149","599616111763506688","-185"
"3150","599616111771200128","-176"
"3151","599616111778893568","-183"
"3152","599616111786587008","-156"
"3153","599616111794280448","-113"
"3154","599616111801973888","-94"
"3155","599616111809667456","-96"
"3156","599616111817360896","-106"
"3157","599616111825054336","-98"
"3158","599616111832747776","-69"
"3159","599616111840441216","-55"
"3160","599616111848134656","-48"
"3161","599616111855828224","-26"
"3162","599616111863521664","-31"
"3163","599616111871215104","-55"
"3164","599616111878908544","-50"
"3165","599616111886601984","2"
"3166","599616111894295552","60"
"3167","599616111901988992","57"
"3168","599616111909682432","33"
"3169","599616111917375872","69"
"3170","599616111925069312","77"
"3171","599616111932762752","12"
"3172","599616111940456320","86"
"3173","599616111948149760","258"
"3174","599616111955843200","214"
"3175","599616111963536640","31"
"3176","599616111971230080","0"
"3177","599616111978923520","50"
"3178","599616111986617088","-14"
"3179","599616111994310528","-101"
"3180","599616112002003968","-94"
"3181","599616112009697408","-101"
"3182","599616112017390848","-139"
"3183","599616112025084416","-156"
"3184","599616112032777856","-144"
"3185","599616112040471296","-96"
"3186","599616112048164736","-65"
"3187","599616112055858176","-74"
"3188","599616112063551616","-74"
"3189","599616112071245184","-86"
"3190","599616112078938624","-106"
"3191","599616112086632064","-125"
"3192","599616112094325504","-159"
"3193","599616112102018944","-178"
"3194","599616112109712384","-183"
"3195","599616112117405952","-190"
"3196","599616112125099392","-205"
"3197","599616112132792832","-255"
"3198","599616112140486272","-323"
"3199","599616112148179712","-287"
"3200","599616112155873152","-12"
"3201","599616112163566720","484"
"3202","599616112171260160","817"
"3203","599616112178953600","523"
"3204","599616112186647040","-74"
"3205","599616112194340480","-270"
"3206","599616112202034048","-166"
"3207","599616112209727488","-166"
"3208","599616112217420928","-197"
"3209","599616112225114368","-161"
"3210","599616112232807808","-149"
"3211","599616112240501248","-173"
"3212","599616112248194764","-183"
"3213","599616112255888256","-171"
"3214","599616112263581696","-156"
"3215","599616112271275136","-135"
"3216","599616112278968704","-103"
"3217","599616112286662144","-101"
"3218","599616112294355584","-125"
"3219","599616112302049024","-125"
"3220","599616112309742464","-123"
"3221","599616112317435904","-130"
"3222","599616112325129472","-67"
"3223","599616112332822912","7"
"3224","599616112340516352","-4"
"3225","599616112348209792","-19"
"3226","599616112355903232","24"
"3227","599616112363596672","57"
"3228","599616112371290240","74"
"3229","599616112378983680","135"
"3230","599616112386677120","205"
"3231","599616112394370560","147"
"3232","599616112402064000","36"
"3233","599616112409757440","74"
"3234","599616112417451008","115"
"3235","599616112425144448","-21"
"3236","599616112432837888","-152"
"3237","599616112440531328","-156"
"3238","599616112448224768","-139"
"3239","599616112455918336","-123"
"3240","599616112463611776","-98"
"3241","599616112471305216","-149"
"3242","599616112478998656","-214"
"3243","599616112486692096","-195"
"3244","599616112494385536","-168"
"3245","599616112502079104","-193"
"3246","599616112509772544","-205"
"3247","599616112517465984","-176"
"3248","599616112525159424","-154"
"3249","599616112532852864","-147"
"3250","599616112540546304","-127"
"3251","599616112548239872","-120"
"3252","599616112555933312","-132"
"3253","599616112563626752","-152"
"3254","599616112571320192","-168"
"3255","599616112579013632","-156"
"3256","599616112586707200","-147"
"3257","599616112594400640","-152"
"3258","599616112602094080","-147"
"3259","599616112609787520","-147"
"3260","599616112617480960","-200"
"3261","599616112625174400","-267"
"3262","599616112632867968","-180"
"3263","599616112640561408","139"
"3264","599616112648254848","550"
"3265","599616112655948288","678"
"3266","599616112663641728","250"
"3267","599616112671335168","-275"
"3268","599616112679028736","-349"
"3269","599616112686722176","-214"
"3270","599616112694415616","-200"
"3271","599616112702109056","-214"
"3272","599616112709802496","-142"
"3273","599616112717495936","-123"
"3274","599616112725189504","-173"
"3275","599616112732882944","-164"
"3276","599616112740576384","-147"
"3277","599616112748269824","-142"
"3278","599616112755963264","-55"
"3279","599616112763656832","0"
"3280","599616112771350272","-26"
"3281","599616112779043712","-19"
"3282","599616112786737152","36"
"3283","599616112794430592","178"
"3284","599616112802124032","340"
"3285","599616112809817518","330"
"3286","599616112817511296","258"
"3287","599616112825205120","267"
"3288","599616112832898944","263"
"3289","599616112840592768","217"
"3290","599616112848286592","176"
"3291","599616112855980288","164"
"3292","599616112863674112","168"
"3293","599616112871367936","144"
"3294","599616112879061760","132"
"3295","599616112886755584","137"
"3296","599616112894449408","65"
"3297","599616112902143232","-50"
"3298","599616112909837056","-98"
"3299","599616112917530880","-115"
"3300","599616112925224704","-164"
"3301","599616112932918400","-193"
"3302","599616112940612224","-212"
"3303","599616112948306048","-238"
"3304","599616112955999872","-248"
"3305","599616112963693696","-258"
"3306","599616112971387520","-272"
"3307","599616112979081344","-270"
"3308","599616112986775168","-282"
"3309","599616112994468992","-294"
"3310","599616113002162816","-255"
"3311","599616113009856512","-207"
"3312","599616113017550336","-200"
"3313","599616113025244160","-209"
"3314","599616113032937984","-205"
"3315","599616113040631808","-200"
"3316","599616113048325632","-221"
"3317","599616113056019456","-234"
"3318","599616113063713280","-214"
"3319","599616113071407104","-195"
"3320","599616113079100800","-185"
"3321","599616113086794624","-168"
"3322","599616113094488448","-178"
"3323","599616113102182272","-226"
"3324","599616113109876096","-193"
"3325","599616113117569920","53"
"3326","599616113125263744","374"
"3327","599616113132957568","477"
"3328","599616113140651392","209"
"3329","599616113148345216","-161"
"3330","599616113156038912","-250"
"3331","599616113163732736","-166"
"3332","599616113171426560","-149"
"3333","599616113179120384","-178"
"3334","599616113186814208","-166"
"3335","599616113194508032","-103"
"3336","599616113202201856","-38"
"3337","599616113209895680","-16"
"3338","599616113217589504","-7"
"3339","599616113225283328","48"
"3340","599616113232977024","166"
"3341","599616113240670848","270"
"3342","599616113248364672","287"
"3343","599616113256058496","263"
"3344","599616113263752320","272"
"3345","599616113271446144","296"
"3346","599616113279139968","282"
"3347","599616113286833792","221"
"3348","599616113294527616","166"
"3349","599616113302221312","166"
"3350","599616113309915136","183"
"3351","599616113317608960","166"
"3352","599616113325302784","154"
"3353","599616113332996608","149"
"3354","599616113340690432","106"
"3355","599616113348384256","53"
"3356","599616113356078080","36"
"3357","599616113363771904","45"
"3358","599616113371465702","19"
"3359","599616113379159296","-26"
"3360","599616113386852864","-60"
"3361","599616113394546304","-110"
"3362","599616113402239872","-161"
"3363","599616113409933440","-183"
"3364","599616113417627008","-202"
"3365","599616113425320448","-219"
"3366","599616113433014016","-224"
"3367","599616113440707584","-221"
"3368","599616113448401024","-212"
"3369","599616113456094592","-217"
"3370","599616113463788160","-217"
"3371","599616113471481728","-161"
"3372","599616113479175168","-86"
"3373","599616113486868736","-65"
"3374","599616113494562304","-72"
"3375","599616113502255872","-65"
"3376","599616113509949312","-74"
"3377","599616113517642880","-98"
"3378","599616113525336448","-127"
"3379","599616113533029888","-154"
"3380","599616113540723456","-132"
"3381","599616113548417024","-118"
"3382","599616113556110592","-180"
"3383","599616113563804032","-209"
"3384","599616113571497600","-221"
"3385","599616113579191168","-248"
"3386","599616113586884608","-67"
"3387","599616113594578176","359"
"3388","599616113602271744","704"
"3389","599616113609965312","588"
"3390","599616113617658752","89"
"3391","599616113625352320","-212"
"3392","599616113633045888","-202"
"3393","599616113640739328","-183"
"3394","599616113648432896","-164"
"3395","599616113656126464","-77"
"3396","599616113663820032","21"
"3397","599616113671513472","113"
"3398","599616113679207040","106"
"3399","599616113686900608","0"
"3400","599616113694594048","-7"
"3401","599616113702287616","84"
"3402","599616113709981184","79"
"3403","599616113717674752","0"
"3404","599616113725368192","-12"
"3405","599616113733061760","9"
"3406","599616113740755328","-2"
"3407","599616113748448896","14"
"3408","599616113756142336","67"
"3409","599616113763835904","41"
"3410","599616113771529472","0"
"3411","599616113779222912","28"
"3412","599616113786916480","36"
"3413","599616113794610048","-2"
"3414","599616113802303616","-2"
"3415","599616113809997056","0"
"3416","599616113817690624","-36"
"3417","599616113825384192","-55"
"3418","599616113833077632","-50"
"3419","599616113840771200","-67"
"3420","599616113848464768","-101"
"3421","599616113856158336","-139"
"3422","599616113863851776","-173"
"3423","599616113871545344","-200"
"3424","599616113879238912","-229"
"3425","599616113886932352","-241"
"3426","599616113894625920","-231"
"3427","599616113902319488","-241"
"3428","599616113910013056","-248"
"3429","599616113917706496","-231"
"3430","599616113925400064","-219"
"3431","599616113933093542","-217"
"3432","599616113940787072","-207"
"3433","599616113948480640","-190"
"3434","599616113956174080","-154"
"3435","599616113963867648","-123"
"3436","599616113971561216","-103"
"3437","599616113979254784","-103"
"3438","599616113986948224","-127"
"3439","599616113994641792","-125"
"3440","599616114002335360","-132"
"3441","599616114010028800","-190"
"3442","599616114017722368","-207"
"3443","599616114025415936","-166"
"3444","599616114033109504","-171"
"3445","599616114040802944","-236"
"3446","599616114048496512","-282"
"3447","599616114056190080","-248"
"3448","599616114063883648","-60"
"3449","599616114071577088","301"
"3450","599616114079270656","641"
"3451","599616114086964224","581"
"3452","599616114094657664","159"
"3453","599616114102351232","19"
"3454","599616114110044800","214"
"3455","599616114117738368","275"
"3456","599616114125431808","178"
"3457","599616114133125376","113"
"3458","599616114140818944","98"
"3459","599616114148512384","82"
"3460","599616114156205952","43"
"3461","599616114163899520","-14"
"3462","599616114171593088","-43"
"3463","599616114179286528","9"
"3464","599616114186980096","53"
"3465","599616114194673664","21"
"3466","599616114202367104","-14"
"3467","599616114210060672","-33"
"3468","599616114217754240","-55"
"3469","599616114225447808","-82"
"3470","599616114233141248","-96"
"3471","599616114240834816","-86"
"3472","599616114248528384","-84"
"3473","599616114256221824","-106"
"3474","599616114263915392","-110"
"3475","599616114271608960","-84"
"3476","599616114279302528","-84"
"3477","599616114286995968","-96"
"3478","599616114294689536","-77"
"3479","599616114302383104","-48"
"3480","599616114310076672","-38"
"3481","599616114317770112","-31"
"3482","599616114325463680","-41"
"3483","599616114333157248","-67"
"3484","599616114340850688","-89"
"3485","599616114348544256","-110"
"3486","599616114356237824","-135"
"3487","599616114363931392","-147"
"3488","599616114371624832","-152"
"3489","599616114379318400","-159"
"3490","599616114387011968","-154"
"3491","599616114394705408","-161"
"3492","599616114402398976","-185"
"3493","599616114410092544","-176"
"3494","599616114417786112","-142"
"3495","599616114425479552","-132"
"3496","599616114433173120","-113"
"3497","599616114440866688","-79"
"3498","599616114448560128","-82"
"3499","599616114456253696","-96"
"3500","599616114463947264","-89"
"3501","599616114471640832","-96"
"3502","599616114479334272","-127"
"3503","599616114487027840","-137"
"3504","599616114494721384","-127"
"3505","599616114502414976","-139"
"3506","599616114510108544","-130"
"3507","599616114517801984","-77"
"3508","599616114525495552","-57"
"3509","599616114533189120","-43"
"3510","599616114540882688","190"
"3511","599616114548576128","637"
"3512","599616114556269696","945"
"3513","599616114563963264","772"
"3514","599616114571656704","243"
"3515","599616114579350272","-94"
"3516","599616114587043840","-110"
"3517","599616114594737408","-82"
"3518","599616114602430848","-69"
"3519","599616114610124416","-43"
"3520","599616114617817984","-55"
"3521","599616114625511552","-96"
"3522","599616114633204992","-123"
"3523","599616114640898560","-130"
"3524","599616114648592128","-125"
"3525","599616114656285568","-110"
"3526","599616114663979136","-103"
"3527","599616114671672704","-115"
"3528","599616114679366272","-123"
"3529","599616114687059712","-110"
"3530","599616114694753280","-110"
"3531","599616114702446848","-123"
"3532","599616114710140288","-113"
"3533","599616114717833856","-96"
"3534","599616114725527424","-98"
"3535","599616114733220992","-91"
"3536","599616114740914432","-72"
"3537","599616114748608000","-60"
"3538","599616114756301568","-48"
"3539","599616114763995008","-38"
"3540","599616114771688576","-43"
"3541","599616114779382144","-43"
"3542","599616114787075712","-19"
"3543","599616114794769152","-21"
"3544","599616114802462720","-62"
"3545","599616114810156288","-115"
"3546","599616114817849728","-168"
"3547","599616114825543296","-178"
"3548","599616114833236864","-176"
"3549","599616114840930432","-224"
"3550","599616114848623872","-241"
"3551","599616114856317440","-221"
"3552","599616114864011008","-246"
"3553","599616114871704576","-253"
"3554","599616114879398016","-212"
"3555","599616114887091584","-205"
"3556","599616114894785152","-229"
"3557","599616114902478592","-231"
"3558","599616114910172160","-190"
"3559","599616114917865728","-118"
"3560","599616114925559296","-50"
"3561","599616114933252736","-60"
"3562","599616114940946304","-123"
"3563","599616114948639872","-123"
"3564","599616114956333312","-82"
"3565","599616114964026880","-38"
"3566","599616114971720448","115"
"3567","599616114979414016","320"
"3568","599616114987107456","415"
"3569","599616114994801024","369"
"3570","599616115002494592","253"
"3571","599616115010188032","287"
"3572","599616115017881600","629"
"3573","599616115025575168","1112"
"3574","599616115033268736","1281"
"3575","599616115040962176","834"
"3576","599616115048655744","234"
"3577","599616115056349224","-7"
"3578","599616115064043136","-67"
"3579","599616115071737088","-113"
"3580","599616115079431040","-108"
"3581","599616115087124992","-125"
"3582","599616115094818944","-166"
"3583","599616115102512896","-164"
"3584","599616115110206848","-152"
"3585","599616115117900800","-168"
"3586","599616115125594752","-185"
"3587","599616115133288704","-205"
"3588","599616115140982656","-209"
"3589","599616115148676608","-188"
"3590","599616115156370560","-180"
"3591","599616115164064512","-178"
"3592","599616115171758464","-164"
"3593","599616115179452416","-147"
"3594","599616115187146368","-125"
"3595","599616115194840320","-106"
"3596","599616115202534272","-69"
"3597","599616115210228224","-26"
"3598","599616115217922176","-31"
"3599","599616115225616128","-41"
"3600","599616115233310080","-7"
"3601","599616115241004032","2"
"3602","599616115248697984","-24"
"3603","599616115256391936","-31"
"3604","599616115264085888","-53"
"3605","599616115271779840","-86"
"3606","599616115279473792","-118"
"3607","599616115287167744","-178"
"3608","599616115294861696","-231"
"3609","599616115302555648","-229"
"3610","599616115310249600","-212"
"3611","599616115317943552","-253"
"3612","599616115325637376","-289"
"3613","599616115333331328","-250"
"3614","599616115341025280","-241"
"3615","599616115348719232","-279"
"3616","599616115356413184","-231"
"3617","599616115364107136","-142"
"3618","599616115371801088","-115"
"3619","599616115379495040","-120"
"3620","599616115387188992","-86"
"3621","599616115394882944","-12"
"3622","599616115402576896","94"
"3623","599616115410270848","209"
"3624","599616115417964800","265"
"3625","599616115425658752","207"
"3626","599616115433352704","137"
"3627","599616115441046656","156"
"3628","599616115448740608","144"
"3629","599616115456434560","45"
"3630","599616115464128512","-21"
"3631","599616115471822464","-50"
"3632","599616115479516416","-137"
"3633","599616115487210368","-154"
"3634","599616115494904320","127"
"3635","599616115502598272","581"
"3636","599616115510292224","786"
"3637","599616115517986176","451"
"3638","599616115525680128","-86"
"3639","599616115533374080","-294"
"3640","599616115541068032","-270"
"3641","599616115548761984","-291"
"3642","599616115556455936","-279"
"3643","599616115564149888","-238"
"3644","599616115571843840","-272"
"3645","599616115579537792","-294"
"3646","599616115587231744","-267"
"3647","599616115594925696","-270"
"3648","599616115602619648","-282"
"3649","599616115610313600","-263"
"3650","599616115618007581","-231"
"3651","599616115625700864","-212"
"3652","599616115633394176","-197"
"3653","599616115641087360","-159"
"3654","599616115648780672","-135"
"3655","599616115656473856","-123"
"3656","599616115664167168","-98"
"3657","599616115671860352","-82"
"3658","599616115679553664","-77"
"3659","599616115687246848","-48"
"3660","599616115694940160","-16"
"3661","599616115702633344","-43"
"3662","599616115710326656","-60"
"3663","599616115718019968","-28"
"3664","599616115725713152","-19"
"3665","599616115733406464","-31"
"3666","599616115741099648","-16"
"3667","599616115748792960","-14"
"3668","599616115756486144","-28"
"3669","599616115764179456","4"
"3670","599616115771872640","26"
"3671","599616115779565952","-94"
"3672","599616115787259136","-246"
"3673","599616115794952448","-238"
"3674","599616115802645632","-183"
"3675","599616115810338944","-171"
"3676","599616115818032256","-103"
"3677","599616115825725440","38"
"3678","599616115833418752","209"
"3679","599616115841111936","325"
"3680","599616115848805248","332"
"3681","599616115856498432","337"
"3682","599616115864191744","400"
"3683","599616115871884928","390"
"3684","599616115879578240","279"
"3685","599616115887271424","159"
"3686","599616115894964736","84"
"3687","599616115902658048","79"
"3688","599616115910351232","84"
"3689","599616115918044544","36"
"3690","599616115925737728","-4"
"3691","599616115933431040","-28"
"3692","599616115941124224","-82"
"3693","599616115948817536","-164"
"3694","599616115956510720","-226"
"3695","599616115964204032","-149"
"3696","599616115971897216","74"
"3697","599616115979590528","349"
"3698","599616115987283712","424"
"3699","599616115994977024","74"
"3700","599616116002670336","-328"
"3701","599616116010363520","-383"
"3702","599616116018056832","-304"
"3703","599616116025750016","-287"
"3704","599616116033443328","-253"
"3705","599616116041136512","-209"
"3706","599616116048829824","-207"
"3707","599616116056523008","-207"
"3708","599616116064216320","-183"
"3709","599616116071909504","-159"
"3710","599616116079602816","-147"
"3711","599616116087296128","-142"
"3712","599616116094989312","-125"
"3713","599616116102682624","-106"
"3714","599616116110375808","-89"
"3715","599616116118069120","-69"
"3716","599616116125762304","-67"
"3717","599616116133455616","-74"
"3718","599616116141148800","-86"
"3719","599616116148842112","-84"
"3720","599616116156535296","-43"
"3721","599616116164228608","-19"
"3722","599616116171921792","-43"
"3723","599616116179615078","-38"
"3724","599616116187308928","31"
"3725","599616116195002752","62"
"3726","599616116202696576","28"
"3727","599616116210390400","-24"
"3728","599616116218084224","-16"
"3729","599616116225777920","60"
"3730","599616116233471744","55"
"3731","599616116241165568","-7"
"3732","599616116248859392","77"
"3733","599616116256553216","173"
"3734","599616116264247040","74"
"3735","599616116271940864","-19"
"3736","599616116279634688","-4"
"3737","599616116287328512","-26"
"3738","599616116295022336","-79"
"3739","599616116302716032","-79"
"3740","599616116310409856","-53"
"3741","599616116318103680","-45"
"3742","599616116325797504","-16"
"3743","599616116333491328","28"
"3744","599616116341185152","31"
"3745","599616116348878976","-4"
"3746","599616116356572800","-36"
"3747","599616116364266624","-48"
"3748","599616116371960448","-74"
"3749","599616116379654144","-118"
"3750","599616116387347968","-147"
"3751","599616116395041792","-152"
"3752","599616116402735616","-168"
"3753","599616116410429440","-207"
"3754","599616116418123264","-263"
"3755","599616116425817088","-316"
"3756","599616116433510912","-272"
"3757","599616116441204736","-45"
"3758","599616116448898432","340"
"3759","599616116456592256","591"
"3760","599616116464286080","328"
"3761","599616116471979904","-152"
"3762","599616116479673728","-296"
"3763","599616116487367552","-248"
"3764","599616116495061376","-253"
"3765","599616116502755200","-221"
"3766","599616116510449024","-168"
"3767","599616116518142848","-161"
"3768","599616116525836544","-178"
"3769","599616116533530368","-178"
"3770","599616116541224192","-130"
"3771","599616116548918016","-91"
"3772","599616116556611840","-115"
"3773","599616116564305664","-132"
"3774","599616116571999488","-84"
"3775","599616116579693312","-28"
"3776","599616116587387136","-28"
"3777","599616116595080960","-41"
"3778","599616116602774656","-65"
"3779","599616116610468480","-96"
"3780","599616116618162304","-41"
"3781","599616116625856128","72"
"3782","599616116633549952","74"
"3783","599616116641243776","19"
"3784","599616116648937600","62"
"3785","599616116656631424","142"
"3786","599616116664325248","195"
"3787","599616116672018944","258"
"3788","599616116679712768","347"
"3789","599616116687406592","402"
"3790","599616116695100416","381"
"3791","599616116702794240","395"
"3792","599616116710488064","398"
"3793","599616116718181888","272"
"3794","599616116725875712","142"
"3795","599616116733569536","94"
"3796","599616116741263262","74"
"3797","599616116748956800","36"
"3798","599616116756650368","-9"
"3799","599616116764343808","-26"
"3800","599616116772037376","-31"
"3801","599616116779730944","-43"
"3802","599616116787424512","-62"
"3803","599616116795117952","-86"
"3804","599616116802811520","-65"
"3805","599616116810505088","-12"
"3806","599616116818198528","-12"
"3807","599616116825892096","-62"
"3808","599616116833585664","-94"
"3809","599616116841279232","-101"
"3810","599616116848972672","-118"
"3811","599616116856666240","-144"
"3812","599616116864359808","-147"
"3813","599616116872053376","-142"
"3814","599616116879746816","-147"
"3815","599616116887440384","-183"
"3816","599616116895133952","-263"
"3817","599616116902827392","-277"
"3818","599616116910520960","-110"
"3819","599616116918214528","236"
"3820","599616116925908096","576"
"3821","599616116933601536","516"
"3822","599616116941295104","7"
"3823","599616116948988672","-349"
"3824","599616116956682112","-294"
"3825","599616116964375680","-202"
"3826","599616116972069248","-209"
"3827","599616116979762816","-197"
"3828","599616116987456256","-190"
"3829","599616116995149824","-209"
"3830","599616117002843392","-193"
"3831","599616117010536832","-166"
"3832","599616117018230400","-176"
"3833","599616117025923968","-168"
"3834","599616117033617536","-147"
"3835","599616117041310976","-147"
"3836","599616117049004544","-110"
"3837","599616117056698112","-28"
"3838","599616117064391552","-12"
"3839","599616117072085120","-4"
"3840","599616117079778688","84"
"3841","599616117087472256","212"
"3842","599616117095165696","306"
"3843","599616117102859264","301"
"3844","599616117110552832","255"
"3845","599616117118246400","243"
"3846","599616117125939840","207"
"3847","599616117133633408","135"
"3848","599616117141326976","101"
"3849","599616117149020416","110"
"3850","599616117156713984","106"
"3851","599616117164407552","50"
"3852","599616117172101120","-2"
"3853","599616117179794560","-21"
"3854","599616117187488128","-45"
"3855","599616117195181696","-67"
"3856","599616117202875136","-60"
"3857","599616117210568704","-50"
"3858","599616117218262272","-55"
"3859","599616117225955840","-45"
"3860","599616117233649280","-19"
"3861","599616117241342848","-9"
"3862","599616117249036416","-19"
"3863","599616117256729856","-31"
"3864","599616117264423424","-41"
"3865","599616117272116992","-41"
"3866","599616117279810560","-28"
"3867","599616117287504000","-19"
"3868","599616117295197568","-31"
"3869","599616117302891102","-65"
"3870","599616117310584704","-98"
"3871","599616117318278272","-108"
"3872","599616117325971712","-106"
"3873","599616117333665280","-113"
"3874","599616117341358848","-123"
"3875","599616117349052416","-135"
"3876","599616117356745856","-166"
"3877","599616117364439424","-236"
"3878","599616117372132992","-272"
"3879","599616117379826432","-74"
"3880","599616117387520000","374"
"3881","599616117395213568","733"
"3882","599616117402907136","564"
"3883","599616117410600576","19"
"3884","599616117418294144","-265"
"3885","599616117425987712","-224"
"3886","599616117433681280","-193"
"3887","599616117441374720","-161"
"3888","599616117449068288","-123"
"3889","599616117456761856","-159"
"3890","599616117464455296","-180"
"3891","599616117472148864","-115"
"3892","599616117479842432","-60"
"3893","599616117487536000","-60"
"3894","599616117495229440","-14"
"3895","599616117502923008","41"
"3896","599616117510616576","33"
"3897","599616117518310016","98"
"3898","599616117526003584","212"
"3899","599616117533697152","183"
"3900","599616117541390720","106"
"3901","599616117549084160","94"
"3902","599616117556777728","74"
"3903","599616117564471296","65"
"3904","599616117572164736","96"
"3905","599616117579858304","110"
"3906","599616117587551872","79"
"3907","599616117595245440","86"
"3908","599616117602938880","135"
"3909","599616117610632448","137"
"3910","599616117618326016","115"
"3911","599616117626019456","79"
"3912","599616117633713024","38"
"3913","599616117641406592","14"
"3914","599616117649100160","-38"
"3915","599616117656793600","-110"
"3916","599616117664487168","-137"
"3917","599616117672180736","-127"
"3918","599616117679874304","-142"
"3919","599616117687567744","-178"
"3920","599616117695261312","-202"
"3921","599616117702954880","-200"
"3922","599616117710648320","-188"
"3923","599616117718341888","-205"
"3924","599616117726035456","-226"
"3925","599616117733729024","-207"
"3926","599616117741422464","-161"
"3927","599616117749116032","-127"
"3928","599616117756809600","-118"
"3929","599616117764503040","-123"
"3930","599616117772196608","-137"
"3931","599616117779890176","-171"
"3932","599616117787583744","-178"
"3933","599616117795277184","-149"
"3934","599616117802970752","-159"
"3935","599616117810664320","-202"
"3936","599616117818357760","-195"
"3937","599616117826051328","-178"
"3938","599616117833744896","-224"
"3939","599616117841438464","-238"
"3940","599616117849131904","-57"
"3941","599616117856825472","246"
"3942","599616117864518944","453"
"3943","599616117872212480","352"
"3944","599616117879906048","-19"
"3945","599616117887599488","-267"
"3946","599616117895293056","-248"
"3947","599616117902986624","-183"
"3948","599616117910680192","-110"
"3949","599616117918373632","-45"
"3950","599616117926067200","-60"
"3951","599616117933760768","-33"
"3952","599616117941454208","82"
"3953","599616117949147776","110"
"3954","599616117956841344","65"
"3955","599616117964534912","55"
"3956","599616117972228352","38"
"3957","599616117979921920","2"
"3958","599616117987615488","4"
"3959","599616117995309056","4"
"3960","599616118003002496","4"
"3961","599616118010696064","31"
"3962","599616118018389632","62"
"3963","599616118026083072","82"
"3964","599616118033776640","67"
"3965","599616118041470208","45"
"3966","599616118049163776","55"
"3967","599616118056857216","82"
"3968","599616118064550784","84"
"3969","599616118072244352","65"
"3970","599616118079937792","60"
"3971","599616118087631360","50"
"3972","599616118095324928","28"
"3973","599616118103018496","4"
"3974","599616118110711936","-26"
"3975","599616118118405504","-69"
"3976","599616118126099072","-113"
"3977","599616118133792512","-159"
"3978","599616118141486080","-180"
"3979","599616118149179648","-195"
"3980","599616118156873216","-224"
"3981","599616118164566656","-246"
"3982","599616118172260224","-255"
"3983","599616118179953792","-260"
"3984","599616118187647232","-243"
"3985","599616118195340800","-209"
"3986","599616118203034368","-183"
"3987","599616118210727936","-159"
"3988","599616118218421376","-142"
"3989","599616118226114944","-144"
"3990","599616118233808512","-154"
"3991","599616118241502080","-173"
"3992","599616118249195520","-205"
"3993","599616118256889088","-219"
"3994","599616118264582656","-212"
"3995","599616118272276096","-205"
"3996","599616118279969664","-207"
"3997","599616118287663232","-231"
"3998","599616118295356800","-282"
"3999","599616118303050240","-311"
"4000","599616118310743808","-171"
"4001","599616118318437376","195"
"4002","599616118326130816","571"
"4003","599616118333824384","552"
"4004","599616118341517952","77"
"4005","599616118349211520","-282"
"4006","599616118356904960","-253"
"4007","599616118364598528","-171"
"4008","599616118372292096","-190"
"4009","599616118379985536","-166"
"4010","599616118387679104","-82"
"4011","599616118395372672","-41"
"4012","599616118403066240","-65"
"4013","599616118410759680","-118"
"4014","599616118418453248","-156"
"4015","599616118426146784","-132"
"4016","599616118433840384","-98"
"4017","599616118441533952","-113"
"4018","599616118449227392","-123"
"4019","599616118456920960","-86"
"4020","599616118464614528","-36"
"4021","599616118472308096","-19"
"4022","599616118480001536","-28"
"4023","599616118487695104","-19"
"4024","599616118495388672","-7"
"4025","599616118503082112","-2"
"4026","599616118510775680","41"
"4027","599616118518469248","77"
"4028","599616118526162816","55"
"4029","599616118533856256","12"
"4030","599616118541549824","4"
"4031","599616118549243392","2"
"4032","599616118556936960","-33"
"4033","599616118564630400","-45"
"4034","599616118572323968","-60"
"4035","599616118580017536","-139"
"4036","599616118587710976","-193"
"4037","599616118595404544","-183"
"4038","599616118603098112","-188"
"4039","599616118610791680","-214"
"4040","599616118618485120","-226"
"4041","599616118626178688","-214"
"4042","599616118633872256","-219"
"4043","599616118641565696","-253"
"4044","599616118649259264","-243"
"4045","599616118656952832","-195"
"4046","599616118664646400","-188"
"4047","599616118672339840","-224"
"4048","599616118680033408","-221"
"4049","599616118687726976","-144"
"4050","599616118695420416","-101"
"4051","599616118703113984","-132"
"4052","599616118710807552","-185"
"4053","599616118718501120","-238"
"4054","599616118726194560","-248"
"4055","599616118733888128","-214"
"4056","599616118741581696","-178"
"4057","599616118749275136","-161"
"4058","599616118756968704","-207"
"4059","599616118764662272","-304"
"4060","599616118772355840","-275"
"4061","599616118780049280","65"
"4062","599616118787742848","574"
"4063","599616118795436416","798"
"4064","599616118803129984","465"
"4065","599616118810823424","-57"
"4066","599616118818516992","-282"
"4067","599616118826210560","-243"
"4068","599616118833904000","-144"
"4069","599616118841597568","-113"
"4070","599616118849291136","-154"
"4071","599616118856984704","-135"
"4072","599616118864678144","-98"
"4073","599616118872371712","-130"
"4074","599616118880065280","-120"
"4075","599616118887758720","-50"
"4076","599616118895452288","-38"
"4077","599616118903145856","-60"
"4078","599616118910839424","-43"
"4079","599616118918532864","-24"
"4080","599616118926226432","-12"
"4081","599616118933920000","-21"
"4082","599616118941613440","-38"
"4083","599616118949307008","-24"
"4084","599616118957000576","-19"
"4085","599616118964694144","-41"
"4086","599616118972387584","-41"
"4087","599616118980081152","-31"
"4088","599616118987774624","-50"
"4089","599616118995468160","-94"
"4090","599616119003161728","-113"
"4091","599616119010855168","-94"
"4092","599616119018548736","-84"
"4093","599616119026242304","-82"
"4094","599616119033935872","-86"
"4095","599616119041629312","-139"
"4096","599616119049322880","-195"
"4097","599616119057016448","-209"
"4098","599616119064709888","-217"
"4099","599616119072403456","-209"
"4100","599616119080097024","-214"
"4101","599616119087790592","-236"
"4102","599616119095484032","-207"
"4103","599616119103177600","-195"
"4104","599616119110871168","-243"
"4105","599616119118564736","-248"
"4106","599616119126258176","-168"
"4107","599616119133951744","-103"
"4108","599616119141645312","-118"
"4109","599616119149338752","-130"
"4110","599616119157032320","-103"
"4111","599616119164725888","-108"
"4112","599616119172419456","-120"
"4113","599616119180112896","-91"
"4114","599616119187806464","-60"
"4115","599616119195500032","-77"
"4116","599616119203193472","-91"
"4117","599616119210887040","-74"
"4118","599616119218580608","-98"
"4119","599616119226274176","-144"
"4120","599616119233967616","-185"
"4121","599616119241661184","-159"
"4122","599616119249354752","62"
"4123","599616119257048192","463"
"4124","599616119264741760","779"
"4125","599616119272435328","629"
"4126","599616119280128896","156"
"4127","599616119287822336","-67"
"4128","599616119295515904","-45"
"4129","599616119303209472","-79"
"4130","599616119310902912","-115"
"4131","599616119318596480","-101"
"4132","599616119326290048","-98"
"4133","599616119333983616","-101"
"4134","599616119341677056","-74"
"4135","599616119349370624","-57"
"4136","599616119357064192","-82"
"4137","599616119364757760","-108"
"4138","599616119372451200","-98"
"4139","599616119380144768","-77"
"4140","599616119387838336","-82"
"4141","599616119395531776","-86"
"4142","599616119403225344","-77"
"4143","599616119410918912","-77"
"4144","599616119418612480","-77"
"4145","599616119426305920","-74"
"4146","599616119433999488","-77"
"4147","599616119441693056","-77"
"4148","599616119449386496","-65"
"4149","599616119457080064","-48"
"4150","599616119464773632","-43"
"4151","599616119472467200","-45"
"4152","599616119480160640","-31"
"4153","599616119487854208","-14"
"4154","599616119495547776","-21"
"4155","599616119503241216","-43"
"4156","599616119510934784","-77"
"4157","599616119518628352","-103"
"4158","599616119526321920","-113"
"4159","599616119534015360","-156"
"4160","599616119541708928","-207"
"4161","599616119549402464","-214"
"4162","599616119557096064","-197"
"4163","599616119564789632","-205"
"4164","599616119572483328","-231"
"4165","599616119580176896","-231"
"4166","599616119587870464","-188"
"4167","599616119595564032","-152"
"4168","599616119603257728","-139"
"4169","599616119610951296","-103"
"4170","599616119618644864","-53"
"4171","599616119626338432","-45"
"4172","599616119634032128","-67"
"4173","599616119641725696","-62"
"4174","599616119649419264","-45"
"4175","599616119657112832","-36"
"4176","599616119664806528","4"
"4177","599616119672500096","38"
"4178","599616119680193664","2"
"4179","599616119687887232","-67"
"4180","599616119695580928","-137"
"4181","599616119703274496","-180"
"4182","599616119710968064","-4"
"4183","599616119718661760","492"
"4184","599616119726355328","849"
"4185","599616119734048896","569"
"4186","599616119741742464","33"
"4187","599616119749436160","-176"
"4188","599616119757129728","-185"
"4189","599616119764823296","-207"
"4190","599616119772516864","-178"
"4191","599616119780210560","-147"
"4192","599616119787904128","-152"
"4193","599616119795597696","-139"
"4194","599616119803291264","-120"
"4195","599616119810984960","-130"
"4196","599616119818678528","-139"
"4197","599616119826372096","-130"
"4198","599616119834065664","-120"
"4199","599616119841759360","-123"
"4200","599616119849452928","-137"
"4201","599616119857146496","-113"
"4202","599616119864840192","-77"
"4203","599616119872533760","-79"
"4204","599616119880227328","-74"
"4205","599616119887920896","-48"
"4206","599616119895614592","-24"
"4207","599616119903308160","4"
"4208","599616119911001728","12"
"4209","599616119918695296","-7"
"4210","599616119926388992","0"
"4211","599616119934082560","41"
"4212","599616119941776128","55"
"4213","599616119949469696","26"
"4214","599616119957163392","-19"
"4215","599616119964856960","-33"
"4216","599616119972550528","-48"
"4217","599616119980244224","-130"
"4218","599616119987937792","-188"
"4219","599616119995631360","-166"
"4220","599616120003324928","-168"
"4221","599616120011018624","-212"
"4222","599616120018712192","-217"
"4223","599616120026405760","-161"
"4224","599616120034099328","-139"
"4225","599616120041793024","-188"
"4226","599616120049486592","-154"
"4227","599616120057180160","-69"
"4228","599616120064873728","-36"
"4229","599616120072567424","69"
"4230","599616120080260992","224"
"4231","599616120087954560","255"
"4232","599616120095648128","152"
"4233","599616120103341824","91"
"4234","599616120111035392","115"
"4235","599616120118728832","62"
"4236","599616120126422272","-50"
"4237","599616120134115712","-96"
"4238","599616120141809280","-36"
"4239","599616120149502720","16"
"4240","599616120157196160","-86"
"4241","599616120164889600","-229"
"4242","599616120172583040","-238"
"4243","599616120180276480","-26"
"4244","599616120187970048","400"
"4245","599616120195663488","678"
"4246","599616120203356928","419"
"4247","599616120211050368","-79"
"4248","599616120218743808","-296"
"4249","599616120226437248","-304"
"4250","599616120234130816","-316"
"4251","599616120241824256","-304"
"4252","599616120249517696","-267"
"4253","599616120257211136","-250"
"4254","599616120264904576","-243"
"4255","599616120272598016","-236"
"4256","599616120280291584","-224"
"4257","599616120287985024","-209"
"4258","599616120295678464","-205"
"4259","599616120303371904","-178"
"4260","599616120311065344","-130"
"4261","599616120318758912","-113"
"4262","599616120326452352","-120"
"4263","599616120334145792","-108"
"4264","599616120341839232","-82"
"4265","599616120349532672","-67"
"4266","599616120357226112","-60"
"4267","599616120364919680","-41"
"4268","599616120372613120","-28"
"4269","599616120380306560","-21"
"4270","599616120388000000","-9"
"4271","599616120395693440","-4"
"4272","599616120403386880","-9"
"4273","599616120411080448","-31"
"4274","599616120418773888","-45"
"4275","599616120426467328","-12"
"4276","599616120434160768","4"
"4277","599616120441854208","-48"
"4278","599616120449547776","-60"
"4279","599616120457241216","-28"
"4280","599616120464934656","-55"
"4281","599616120472628096","-89"
"4282","599616120480321536","-14"
"4283","599616120488014976","33"
"4284","599616120495708544","-43"
"4285","599616120503401984","-53"
"4286","599616120511095424","4"
"4287","599616120518788864","-53"
"4288","599616120526482304","-120"
"4289","599616120534175744","-65"
"4290","599616120541869312","-2"
"4291","599616120549562752","-7"
"4292","599616120557256192","-28"
"4293","599616120564949632","-50"
"4294","599616120572643072","-98"
"4295","599616120580336512","-147"
"4296","599616120588030080","-130"
"4297","599616120595723520","-86"
